,CH0,CH1,CH2,CH3,CH4,CH5,CH6,CH7,Pose
0,1696646.9156253836,1844263.4078989774,1971359.9167623403,1933398.8052372113,1685678.077527659,1742560.1451059156,1409736.2432711483,1201618.836990812,1.0
1,1691723.2874647733,1838906.6536369266,1965630.9344459546,1927782.6870066246,1680792.8861049537,1737508.7511722313,1405667.3875762918,1198161.4113705775,1.0
2,1552992.207902802,1688106.4382609497,1804436.398124218,1769688.7732718769,1542944.1896032388,1595006.6622523842,1290358.46644941,1099867.6288704833,1.0
3,1396799.214608554,1518310.3980713899,1622926.877481158,1591677.287914361,1387758.6664254693,1434578.3775761186,1160590.2592805477,989276.9284426143,1.0
4,1374159.15008786,1493691.9550883502,1596606.7596308577,1565867.8721911472,1365273.6142490688,1411332.191303113,1141812.244434814,973288.1024711251,1.0
5,1348100.9521362304,1465371.5454908006,1566340.2488242264,1536184.4828045426,1339389.626464384,1384577.1497074028,1120164.3771671462,954829.8261167456,1.0
6,1337635.5975767707,1454004.4942478773,1554197.0663143059,1524273.1456676736,1328990.9914738399,1373830.5556558634,1111451.4586196262,947388.3856018422,1.0
7,1351148.6929529535,1468683.9934560924,1569880.9531624592,1539657.3103230586,1342418.449296052,1387707.6935708371,1122698.142791311,956989.9241460866,1.0
8,1362774.3918557847,1481313.8439250826,1583375.9659726245,1552895.0690856026,1353973.62546233,1399650.3284895082,1132380.6293743327,965256.3594482524,1.0
9,1376747.2044616272,1496487.0271063866,1599584.4391030255,1568798.3203659179,1367872.148781458,1414013.5137183815,1144051.970118483,975236.194430528,1.0
10,1387196.3342176538,1507840.3527758778,1611718.3372166832,1580702.2176836987,1378266.656510973,1424758.3022236214,1152772.5962764018,982683.4376767223,1.0
11,1396844.9981056426,1518342.4378885305,1622955.767311798,1591719.6935686893,1387851.90244873,1434672.0756042933,1160765.879982388,989474.485430761,1.0
12,1393393.292369176,1514624.6172169663,1619006.587532402,1587834.525933897,1384402.8551812458,1431116.8036871157,1157797.1810527518,986881.3825089155,1.0
13,1392051.1801429954,1513194.5429952277,1617497.472910815,1586342.5406199868,1383043.9265925784,1429719.424324157,1156575.7111694491,985782.808968453,1.0
14,1381799.8998468218,1502048.428978042,1605577.5859542275,1574648.1720253727,1372837.7849595204,1419165.6991512713,1148016.7605188428,978482.8853766384,1.0
15,1365706.5385316173,1484524.292590006,1586820.2995395593,1556258.3734440273,1356846.265878318,1402623.167177128,1134692.3420889063,967173.4748199374,1.0
16,1350649.3906194235,1468123.4695171409,1569264.6583326904,1539052.507685659,1341905.5309652386,1387167.3655349542,1122278.2425175395,956652.7782999707,1.0
17,1324686.347025972,1439868.1025642667,1539039.7419300284,1509424.1857881977,1316142.7608522559,1360526.4256361774,1100834.2126654787,938441.4203326267,1.0
18,1301603.003780712,1414764.2674186367,1512199.7537030648,1483109.648972118,1293234.7908998241,1336844.2810398203,1081736.5492799177,922194.9614098535,1.0
19,1272890.0323007065,1383566.674050367,1478864.1895336015,1450414.7512598336,1264713.8702846714,1307367.3576099842,1057876.2402214776,901840.2742535996,1.0
20,1241894.143488079,1349909.4244409641,1442913.4134931993,1415144.6304109476,1233899.3349668644,1275525.4455734754,1032028.3619515696,879745.9901805818,1.0
21,1213027.36481953,1318573.5004739678,1409447.3905473214,1382306.3185363954,1205184.7542747692,1245855.268333095,1007901.6154493047,859099.496641874,1.0
22,1180388.7777602992,1283118.1766542254,1371562.826042847,1345138.9755281445,1172724.0812685657,1212305.0877148388,980672.2109660811,835837.7711444508,1.0
23,1152271.4078323306,1252538.4227061395,1338860.902760745,1313067.63531646,1144776.6962620076,1183407.2664311174,957309.4182712747,815943.3424847686,1.0
24,1124008.625870607,1221780.4252629234,1305955.0829378353,1280806.0507728094,1116708.8151395097,1154379.3723969613,933911.4804962226,796061.88432662,1.0
25,1097485.4012848274,1192923.0230226994,1275091.0410552896,1250548.1885668142,1090383.9824197679,1127158.6215933484,911976.1798073166,777417.7590772376,1.0
26,1074261.8383011927,1167660.7494689575,1248077.1129167215,1224064.151929902,1067337.0976297064,1103329.5966322334,892771.0591380768,761088.6219076308,1.0
27,1051638.8195541564,1143068.5186768265,1221791.6111776067,1198287.4072708779,1044872.3622240942,1080107.7118624358,874006.9807443474,745103.0982645581,1.0
28,1032732.1291424963,1122540.6877149194,1199867.8993528008,1176778.3831648622,1026079.221797339,1060688.4434736005,858243.675607831,731626.5588509026,1.0
29,1015795.9181485374,1104156.6230484515,1180235.174516925,1157512.7885970413,1009230.3503244187,1043278.2622768452,844083.725653065,719507.0656666814,1.0
30,1001858.2514537278,1089020.4017698225,1164064.1452961545,1141645.1390944954,995360.649242641,1028943.4351301303,832432.2915600827,709543.4404095041,1.0
31,991103.1655366636,1077334.2968311254,1151574.4393401104,1129392.557086724,984663.6510996113,1017885.6566578271,823461.1721435988,701883.2064037105,1.0
32,982532.0531799877,1068012.3018001183,1141605.719591752,1119617.5786724405,976150.0082795327,1009082.6030206186,816349.934715294,695829.7981081444,1.0
33,976760.5190154958,1061723.0246161402,1134871.9906692025,1113019.416166166,970426.8004069855,1003161.2873335555,811603.6364598903,691813.558924561,1.0
34,972681.6025226362,1057276.9386897685,1130111.3424089856,1108355.620223213,966385.7385121224,998980.1826871575,808260.2624026348,688988.5351497519,1.0
35,970078.7950966478,1054446.6361587592,1127086.01225024,1105390.0016745834,963805.2917864881,996312.668532701,806111.8755720718,687161.6436788354,1.0
36,968672.4327704915,1052921.652088378,1125459.0519024124,1103793.4644655522,962407.7814457321,994869.2049794833,804936.9542579753,686154.34344226,1.0
37,968053.5790317986,1052252.9851880923,1124747.287150485,1103094.023033582,961790.7554578795,994232.4445403251,804411.0714736901,685698.6878484467,1.0
38,968037.5476331083,1052235.872313452,1124729.1860901634,1103076.2042724283,961774.6944234131,994215.8632614057,804396.8479359141,685685.9892491646,1.0
39,968228.2913251532,1052442.6023130282,1124949.8964191845,1103293.1846638562,961965.9799168422,994413.4878927018,804560.5047218063,685827.3202920734,1.0
40,968286.3924056098,1052507.4298318368,1125020.6794677817,1103362.2381962836,962024.0071067878,994474.0878786981,804607.4978318213,685865.0888468374,1.0
41,967899.7335631874,1052092.8204774559,1124581.557707284,1102929.134608198,961634.926995835,994073.5318150157,804267.3736083341,685564.3269424953,1.0
42,966913.3604965745,1051028.3992527407,1123448.6669994527,1101813.9290112674,960644.8760484916,993051.8032182317,803413.7866297269,684820.2666555927,1.0
43,965118.5199611695,1049083.437039071,1121372.7732722599,1099774.2817272486,958850.9464906822,991198.3289885613,801889.0875951521,683506.1335672605,1.0
44,962567.675031019,1046307.8946946152,1118402.6078044302,1096861.2046457208,956312.5969171603,988572.6002023825,799765.0792885754,681697.7611439482,1.0
45,959181.1427917846,1042609.5662553398,1114436.2010196184,1092976.5739255717,952955.5248081236,985096.1789026309,796996.886843361,679368.5610450594,1.0
46,954745.2955482356,1037767.5742801736,1109246.4641547147,1087894.8202707574,948564.8871270441,980551.3546708665,793383.621602397,676328.2027333662,1.0
47,949070.8770285074,1031589.7966212716,1102637.7212634669,1081419.1715743456,942943.7565017178,974738.6062601651,788724.7034503607,672380.1048612358,1.0
48,941880.2796836988,1023785.0343233448,1094305.4499161732,1073246.1748389355,935805.1624742856,967364.090904068,782746.3395505069,667268.8340525252,1.0
49,933344.1337661962,1014529.3761222783,1084429.445490843,1063552.7900555788,927312.8949433449,958592.9301827409,775594.7650246923,661132.2067623248,1.0
50,923637.5542173086,1003996.4710072544,1073182.6681708002,1052512.8641754037,917644.7593233219,948603.018151889,767450.4690799213,654151.7108921495,1.0
51,912837.961761503,992272.5156217968,1060659.5819206424,1040221.5183982829,906888.1169605351,937486.4227784975,758394.223747752,646395.9531789391,1.0
52,901266.3166418349,979693.7356973164,1047210.683346796,1027028.6386475865,895376.712268002,925584.4159735641,748747.0922059036,638166.4865642887,1.0
53,888986.2854457977,966330.4548455711,1032914.233710889,1013012.4155990464,883182.4424896983,912973.048929031,738579.7206595545,629525.3318894674,1.0
54,876138.305076356,952337.1381613907,1017937.3032096085,998335.609626769,870442.8034938641,899795.1494486878,728004.5683568844,620565.6422827262,1.0
55,862760.3883981074,937755.4262343253,1002323.1094764512,983037.489224144,857183.804782282,886076.5682845087,717030.388406716,611290.9967301337,1.0
56,848364.638298632,922101.5859244277,985589.3115848999,966631.011316389,842900.0220652336,871310.5116007171,705124.8458708331,601161.7870271634,1.0
57,833051.1845148855,905484.1168572909,967849.091542952,949224.8733263161,827679.6113965579,855586.3438562356,692345.4307903852,590223.014353707,1.0
58,817253.4707977447,888346.3648887028,949554.4613720372,931268.6398770419,811956.3427212036,839342.5259196509,679105.2176416499,578872.5679756774,1.0
59,801278.1971242853,871014.684823899,931050.7029358627,913105.7479791432,796047.3954366756,822905.6471478306,665695.3119899635,567372.9086253977,1.0
60,785641.8622627851,854025.1668695639,912891.9569651346,895289.9111760475,780486.8881194034,806819.8782333265,652634.0480715366,556216.6979425683,1.0
61,770557.1032712713,837610.2641187182,895330.3458465328,878070.870383382,765499.4537190942,791320.0546144854,640126.4655825429,545582.308483715,1.0
62,756235.282271409,821996.6349264052,878607.29365622,861685.9780103106,751296.1639636799,776624.1482137706,628360.1358363507,535636.3497525044,1.0
63,742489.6394995735,807006.0311601566,862549.8722960628,845957.1467293162,737678.7228605988,762533.9016425108,617110.6369771637,526143.4796600209,1.0
64,728678.7772743729,792001.550741248,846522.2985136092,830242.9189379878,723985.7505984389,748384.5308602024,605683.8606653715,516402.66389534576,1.0
65,715100.5715043253,777285.3277384054,830827.8466572573,814842.1411583121,710498.5206631558,734458.4524094643,594335.3744561651,506661.55475104315,1.0
66,702294.7841138068,763406.6117090113,816023.1398070263,800308.221579631,697752.8551040572,721295.9374093608,583579.171412265,497419.59148283425,1.0
67,690447.9167016009,750563.7104560612,802318.3407686949,786851.2309951995,685945.8019872863,709099.2799749399,573595.8652336347,488839.34534593055,1.0
68,679856.7603475427,739068.2297927528,790040.2812762742,774799.1231116891,675392.5859899728,698192.6842041586,564694.5296542227,481209.903221639,1.0
69,670760.1385553745,729172.4012093218,779454.8917997304,764417.7536416933,666346.9522714779,688837.2115694161,557124.0365818915,474763.5305237922,1.0
70,663292.929913341,721016.9718162107,770708.9105998434,755853.142435389,658948.0959242455,681175.0867333751,551019.8868393161,469628.62725391553,1.0
71,657245.1310605402,714392.0130781089,763591.2385024771,748891.7992335048,652976.3037815541,674985.5370897403,546157.1628933963,465581.14537744486,1.0
72,652155.914995436,708829.1298244763,757624.7379189489,743054.1023329009,647953.2135677346,669784.1541748896,542053.3075409313,462148.8212345729,1.0
73,647657.2696504795,703950.7220985668,752421.9787520767,737951.4536839873,643495.8519485537,665182.2587066389,538325.2362720136,458959.32526206947,1.0
74,643813.293035917,699813.4988030734,748032.0708927937,733633.9965503769,639663.9040622499,661235.7536238994,535036.2511226246,456085.1187934857,1.0
75,640980.0243819344,696769.5285405666,744803.7045771591,730453.7957572191,636822.0603232309,658308.7600362006,532562.6391256846,453908.20027039683,1.0
76,639271.9873809379,694932.2226573314,742851.572830202,728529.3176458363,635099.5847511296,656532.6821698844,531052.8292483434,452578.9224608001,1.0
77,638744.3065465427,694352.9016429676,742225.8004425555,727914.3521820249,634564.664108496,655976.1579644723,530596.3869973329,452193.3667502606,1.0
78,639240.5871095676,694867.6168852402,742756.6880848845,728442.0693507014,635065.8027177268,656485.405995988,531063.6056094975,452633.64324807154,1.0
79,640419.2123671524,696123.185095121,744080.8027722593,729750.617374239,636256.4186443217,657708.6297246154,532126.8457230601,453588.7745410263,1.0
80,642016.1060343691,697840.2634972885,745904.0644060965,731547.2655179915,637863.0563593638,659364.6746357454,533529.1405903756,454822.9278637301,1.0
81,643742.0048098516,699714.4755391224,747907.5902902219,733514.774170295,639588.0220675583,661148.3335208436,534990.0557088846,456076.0993017111,1.0
82,645483.4437407681,701619.7098834029,749954.0157614136,735518.3987987614,641315.4131978322,662938.5751281648,536412.236927269,457268.0800637621,1.0
83,647219.9641840714,703526.1552013634,752005.6566176561,737523.9922450332,643029.1619391566,664716.2918150366,537799.1763939874,458415.1768677505,1.0
84,649011.8131980934,705486.6200027018,754109.7835806714,739582.2527630723,644797.107552129,666547.5367867434,539239.8844482551,459617.280015203,1.0
85,650866.7799270011,707502.028453304,756262.3461650695,741692.1176388301,646633.5343819628,668444.924287821,540768.5407606548,460918.788705028,1.0
86,652592.8301622838,709372.3709517382,758256.7277913111,743649.4298743935,648348.2883928221,670215.3639800564,542212.4353877588,462158.57727645605,1.0
87,654048.2064018518,710946.9567391286,759934.2870124205,745297.1864216389,649797.9122713004,671711.7503142187,543442.6829102961,463220.56830977456,1.0
88,655082.3973854048,712066.8382188082,761128.389895057,746469.9888918225,650828.9989818643,672776.5808695923,544317.3552376756,463974.50134440116,1.0
89,655593.3999058716,712622.8005573548,761723.330955603,747053.6496717379,651337.8925795797,673303.051984552,544743.8068172779,464337.61570936383,1.0
90,655572.8983664853,712601.2459890819,761700.879240813,747031.5370478443,651317.543443653,673282.4609280012,544725.6871487084,464321.0409277599,1.0
91,655003.3318377605,711980.793189662,761036.700949771,746380.7483786286,650753.0914172322,672698.7256878709,544257.3668897827,463924.5977477544,1.0
92,653864.8911441364,710738.3773368548,759705.3234112171,745076.9920655572,649626.1760374474,671532.5706936824,543328.2009704653,463142.1952172094,1.0
93,652079.6281787052,708792.5324866327,757622.1112056114,743036.1519861014,647857.7534745062,669703.3595683248,541864.9218822456,461905.754109792,1.0
94,649532.468799962,706024.4346958451,754664.5331932779,740135.7873488774,645329.66805103,667090.8722885695,539752.8929877756,460105.92586224945,1.0
95,646177.6682266982,702385.4095297689,750780.7969488611,736324.3298105003,641993.1909809245,663644.8555954827,536944.7989163682,457698.97381495044,1.0
96,642062.3274783933,697921.4165589963,746015.6856804243,731646.9558245124,637895.7090368721,659412.2478489252,533489.5993892811,454735.37154361466,1.0
97,637230.7474844188,692678.1198621328,740416.5630640289,726151.6336946503,633085.6770157416,654442.5411177195,529437.2020064088,451262.98246646195,1.0
98,631814.1624973062,686789.5876173843,734120.8146298737,719976.4934903837,627700.5377681383,648875.2170306727,524926.4300547375,447417.01507854136,1.0
99,625894.972950333,680341.2197225892,727217.1491203837,713210.4871855803,621826.8498256585,642798.8799663773,520044.40764361876,443281.03479005594,1.0
100,619354.5028953726,673215.8782911763,719589.8025721076,705737.2260416934,615344.8238610046,636094.038971549,514669.39457230014,438731.5056234677,1.0
101,612096.7931051018,665317.2591855234,711141.5228399215,697457.7036627191,608151.8535650992,628656.9349915277,508692.89410211064,433660.27626602445,1.0
102,604021.6165298965,656543.8009875274,701768.5938334456,688266.308928281,600138.5912047026,620376.4538118136,501998.2225653552,427951.95191057475,1.0
103,595153.8768334489,646920.2246893747,691494.2948968176,678185.0552745316,591323.4135483303,611269.7631427072,494595.0648938738,421615.572732089,1.0
104,585576.0944361864,636532.1195685227,680406.4871692566,667301.3810698042,581789.0900918943,601420.8536724579,486558.7798272479,414721.627499205,1.0
105,575426.6263308098,625524.4611850018,668656.8962869259,655767.3814736176,571681.2846848655,590979.097841109,478030.0164641005,407401.0217175046,1.0
106,565125.927337769,614326.9662212211,656684.7619051565,644022.7854610409,561432.3144830372,580382.6330133156,469437.6451893067,400070.4749221639,1.0
107,554730.7711900771,603005.3194743346,644564.9936633679,632142.265752008,551107.5527820063,569701.5610063676,460842.688149367,392779.96649626974,1.0
108,544110.0150021187,591433.6405167712,632176.7297635927,620003.281749874,540575.7825594137,558806.3759359291,452105.97819438257,385383.64297098794,1.0
109,533246.0281862196,579596.4789400637,619505.120867307,607587.9150982209,529810.25017125,547670.0888542187,443188.6738391343,377839.67890511284,1.0
110,521938.8891973605,567293.7145127819,606348.2756858579,594691.0903557288,518596.34149951907,536075.6432887529,433861.36377637874,369918.262815422,1.0
111,510121.07800931786,554458.5021749805,592638.0744903714,581242.155274508,506854.9848015607,523942.04690771736,424028.7531410372,361522.0216663172,1.0
112,497832.4520519358,541135.0093371465,578421.3069408936,567286.412052197,494623.4887504557,511307.5842438363,413714.6715125708,352667.6840292925,1.0
113,485490.2659372446,527749.1574610821,564132.6970905621,553258.5538299656,482326.79252384265,498603.0325960781,403334.899923258,343757.6219234709,1.0
114,473532.2044723298,514752.211879825,550237.1810548917,539624.2997049252,470418.3739338155,486290.84308743686,393338.20031055337,335222.5772314355,1.0
115,461931.03999065654,502129.8031826469,536733.3858598962,526382.1791195221,458885.14483676036,474363.51651344023,383704.06600452476,327025.7352046292,1.0
116,450864.0984892305,490067.60908264545,523815.8590955127,513725.2579491803,447908.84715239186,463006.37706278614,374603.9917149724,319327.6105344138,1.0
117,440192.35165799817,478431.10357385135,511352.9279874306,501518.31519557757,437340.75974382815,452071.65583622456,365876.4149223762,311960.92195314146,1.0
118,429620.86370657635,466924.9658242012,499046.4089020449,489458.5773121108,426867.6477987814,441242.78474815266,357189.54878135235,304594.34834029106,1.0
119,419122.7759799675,455521.40937714535,486865.53023007984,477511.837926741,416446.05841185997,430473.75211643084,348480.93159948586,297165.047408734,1.0
120,408594.39684182894,444118.9805009836,474709.11854235537,465575.1199546726,405964.7154435778,419652.6427324945,339624.5143570924,289542.1857084179,1.0
121,398474.884176447,433164.96704000025,463032.0087761296,454103.53573243524,395870.40763823997,409230.72474810487,331056.15254796646,282148.87917232665,1.0
122,389195.2317106925,423103.2361377629,452291.5290920784,443556.0021910219,386612.3860916044,399665.5221421609,323219.91617627704,275411.36869692226,1.0
123,381007.7397485944,414198.5216051399,442765.72336110624,434211.3441346219,378461.4166274727,391234.8352020592,316384.7020192215,269583.818683311,1.0
124,374180.2499138375,406728.4484638076,434742.59805113607,426356.7866780668,371693.7225146095,384220.66087968746,310823.9416177371,264927.4324839151,1.0
125,368314.53589151916,400296.1955325807,427826.29812695924,419594.3505688718,365903.38108711626,378216.8457495928,306126.1122885448,261029.27597272725,1.0
126,363010.50074757735,394496.4832841717,421604.6815007052,413508.6056853999,360672.0138751525,372799.7057021633,301861.9658014996,257466.85614838442,1.0
127,358000.65143533994,389055.7786304024,415796.30151297746,407815.1937192279,355713.3717331774,367677.55690082855,297736.88615815225,253952.79689161168,1.0
128,353244.30608254415,383928.351062717,410349.1651390417,402461.50008306873,350977.2175669868,362796.6713371086,293694.6274798781,250436.10314683578,1.0
129,349126.8456582217,379499.3265977677,405648.3587827944,397834.28892483603,346854.7994717441,358549.2935867825,290126.68179476185,247307.3237583466,1.0
130,345879.1928403419,376004.33563684626,401935.9169666355,394178.00222599297,343592.90932186495,355186.58924996306,287288.78897203074,244816.11892996682,1.0
131,343805.14281759015,373752.01247726736,399527.1508247585,391811.05326179194,341513.0404898219,353035.0757047438,285514.6873979076,243291.0654649369,1.0
132,342911.3996624833,372749.7644593794,398431.3631247041,390744.9516774859,340631.9059419402,352113.0236814327,284833.56707076915,242761.71068590475,1.0
133,342866.5229619859,372660.3337357818,398306.4301322625,390637.37535550207,340614.7661327913,352082.3999381029,284919.92802097794,242911.50165620627,1.0
134,343345.48364339245,373148.25299095304,398806.2735606454,391141.7895112207,341123.8655197967,352599.5879473657,285442.47105968144,243423.78429537316,1.0
135,343951.89516042575,373804.89352196065,399509.302114513,391836.4774074361,341747.8398116608,353245.9731622265,285996.1728217292,243909.7881401656,1.0
136,344651.04499301035,374584.98881979217,400359.9184704299,392666.3656966324,342444.26190167374,353973.3536362815,286545.60771482845,244347.8498643011,1.0
137,345541.5531945764,375580.93987380876,401445.30562994553,393721.0391147674,343314.40725719987,354880.8928698527,287203.204133165,244858.07504233925,1.0
138,346725.1805255105,376891.3340263005,402862.3623659782,395100.80364509084,344469.3904053964,356081.1582248924,288096.73054211756,245572.33513287385,1.0
139,348356.5822529018,378669.3134920203,404764.2747113983,396961.90230001253,346075.9299686114,357742.60584156396,289409.4533371924,246677.12947706654,1.0
140,350361.8782719642,380838.1131343055,407073.0745268314,399228.578297595,348067.7980926366,359797.68896487326,291088.8088658731,248125.18383209917,1.0
141,352564.16402775823,383214.8637990147,409601.06217722886,401714.4678666902,350267.70121741475,362066.56508267956,292969.5336795971,249759.9115511835,1.0
142,354750.36921087885,385578.449062192,412119.2058838541,404190.7567997917,352456.0506723324,364325.7941252814,294840.96459382033,251382.0719869231,1.0
143,356793.1540953664,387793.0571703842,414483.4917204198,406513.4518660022,354498.06581240747,366435.8924765323,296574.76274370775,252874.9302045256,1.0
144,358625.86925658665,389785.146776707,416613.7307684782,408603.37775133364,356323.06059113855,368323.13260294026,298106.945493223,254183.36887332567,1.0
145,360160.40144369233,391462.08009194385,418413.024001857,410365.07913015335,357843.69850085466,369898.43228717905,299358.49416829064,255234.65844487716,1.0
146,361471.60255123314,392896.398858852,419952.4882080696,411871.2167938004,359139.2788413928,371240.7095119333,300416.5118151099,256118.93856252596,1.0
147,362618.5008307576,394145.43147961696,421288.8196376489,413180.11917001667,360273.79185271263,372414.1872212783,301353.1918582851,256911.09116348354,1.0
148,363518.2013693844,395124.19733951124,422335.51331960986,414206.2680682521,361166.51322012045,373337.46744024986,302095.04401666636,257541.2219350035,1.0
149,364110.6313225006,395769.931622601,423027.3633139038,414884.77810606227,361756.3863164346,373948.22318926867,302585.2227245654,257956.05807496337,1.0
150,364383.96400772367,396067.44116168027,423346.0178077574,415197.51445148216,362029.5588647768,374231.0999236755,302813.65580036456,258150.45778824334,1.0
151,364317.0116592501,395993.0739535656,423265.3824110089,415118.83286593086,361963.79239844665,374162.72058570903,302761.3047614701,258108.84517351518,1.0
152,363871.0963443393,395507.0111348345,422744.66287831415,414608.43091813446,361520.9379553978,373704.53088735224,302392.2007195533,257796.43443159238,1.0
153,363067.73618604796,394630.3980042165,421805.11067729327,413688.0872128302,360724.6664127045,372880.5112843756,301733.0397385128,257240.69535644326,1.0
154,361920.77295880875,393377.04213418707,420460.74776107376,412372.23824654025,359590.4573219798,371706.3991938115,300801.1728643846,256459.04758502118,1.0
155,360374.4217405692,391690.28453292616,418654.00846939086,410603.2957971463,358061.7993953018,370124.9969667276,299541.32482840295,255397.9136089103,1.0
156,358339.9960598615,389479.92305661784,416293.1193863678,408288.92644105694,356046.5233768276,368042.9879706081,297860.9627327901,253966.80343658055,1.0
157,355790.7798818349,386717.54172709445,413347.6005566622,405398.1229760377,353513.84218478634,365428.4379374023,295727.4313431279,252134.73723245622,1.0
158,352796.8853208134,383472.79820799007,409886.25095690554,401999.68053170317,350532.9035648895,362350.20296271646,293208.7043820432,249970.2957258805,1.0
159,349381.2266638374,379770.2168966467,405935.3726705976,398120.2621800373,347129.0309859149,358834.5464084839,290328.56264787,247494.4333153086,1.0
160,345635.90073693753,375704.8098630567,401593.2043274006,393858.86943416507,343400.1730314408,354981.4936031877,287185.91705863766,244802.34699608287,1.0
161,341703.48928037373,371422.85211093794,397010.12597608543,389366.1835165105,339494.78354737116,350942.09623547766,283930.5344107125,242039.3501676922,1.0
162,337566.84828263696,366909.5550912066,392173.8038642898,384629.5359519833,335397.3624683935,346702.04453196004,280545.90587432793,239186.01890583514,1.0
163,333086.9007095097,362026.0166719685,386944.8132167477,379508.6103560928,330965.5136106014,342117.8713404435,276886.2461450388,236097.14357044964,1.0
164,328163.2543033132,356670.15527909785,381219.0489774544,373897.44389835023,326090.3583960113,337078.44051631144,272835.8383618605,232658.55740440806,1.0
165,322784.91670543974,350828.79264518706,374980.36860987934,367778.5282530883,320752.4211145664,331562.8599407439,268369.6892523371,228847.3445300132,1.0
166,316883.83777125675,344434.2366254306,368159.9509391163,361082.5895762222,314880.1614541485,325499.2711741073,263411.13913971256,224586.06660961334,1.0
167,310631.1448451754,337660.69538796216,360935.40355034894,353987.60609107866,308648.7631210098,319064.4734183409,258132.15597766684,220041.95718936945,1.0
168,304285.97496639576,330773.3452672955,353578.6926553056,346766.52982278925,302327.4633097974,312531.9018347826,252800.45511281045,215473.66524554868,1.0
169,297937.08178294805,323867.7859360762,346192.3887799866,339522.72503750236,296015.5864669717,306004.9665223965,247515.71458142623,210972.79187076277,1.0
170,291780.1543668635,317145.5539153266,338984.2514971801,332463.5759776357,289914.09536622046,299688.0262619549,242476.94676913726,206731.03011189276,1.0
171,285590.62729503843,310383.02262149693,331731.61111210583,325364.7787106672,283794.31498970214,293351.9197454432,237450.97774947144,202514.35349095438,1.0
172,279034.2953287283,303243.7580935801,324094.4166957182,317883.7832590667,277309.5045935755,286646.82134451333,232083.40218460732,197971.8373474769,1.0
173,272129.30535696883,295743.85010831594,316084.7995744381,310030.3677814735,270463.7703198095,279574.716730555,226368.17182568487,193099.13957919824,1.0
174,264780.9962948168,287786.976523353,307603.92910232727,301704.4753935636,263155.092995635,272031.32068901346,220193.89404513134,187785.52830434957,1.0
175,257221.1573219262,279608.37550902285,298890.3017751176,293144.2673035375,255618.18929142173,264253.1257908776,213787.77528888566,182251.7297619565,1.0
176,249783.64883791655,271549.78214446513,290293.6471053744,284700.74689859856,248199.8377042419,256592.28215148562,207496.4569352499,176834.522437782,1.0
177,242683.77506907147,263835.60041851643,282048.0469042373,276610.07326637604,241131.25390575832,249285.3195860791,201550.71373698764,171753.21149732653,1.0
178,236119.75503604565,256672.8981651703,274370.2036024262,269088.8575963921,234620.6439985528,242545.77945798164,196157.17733818473,167202.82927643615,1.0
179,229912.25438317942,249886.17897399637,267088.2276714935,261963.00886131029,228486.0606020819,236193.0454488783,191130.11346340895,162993.71327411878,1.0
180,223906.0784394163,243318.1431075056,260041.63706544653,255069.40337047767,222558.6768808944,230055.59763481905,186290.76770005643,158949.6347718915,1.0
181,217751.2033347463,236614.07303005515,252869.49599500306,248043.807704705,216470.26692004135,223760.38654649875,181259.0199405865,154695.57327800713,1.0
182,211220.1160342089,229543.29829739462,245335.84444239212,240648.0907306938,209980.3884205603,217063.073653302,175782.4453298974,149982.53745416919,1.0
183,204629.99866134857,222426.0077429275,237762.29796314958,233204.10808970762,203406.04986828324,210282.5518301375,170170.0701789316,145114.30766811848,1.0
184,198270.91687337923,215559.88159196867,230454.87072158535,226019.2011748462,197049.63075011832,203725.95700277272,164722.21659673133,140379.98927919945,1.0
185,192636.52387648073,209448.7801911332,223929.25354309715,219610.80381221612,191424.7561702889,197913.86015508545,159952.83621589988,136280.0152163487,1.0
186,187921.14137601637,204297.07574823723,218400.7076568089,214195.09148051462,186740.12258958296,193062.5447914155,156073.7055370381,133013.7555165102,1.0
187,183891.9494952876,199876.2048121252,213645.25368180434,209546.83532083954,182763.7094891103,188941.6585373577,152852.24985172605,130343.99358099943,1.0
188,180358.13309547046,195993.18037574863,209466.71398968974,205467.06103278324,179293.8568262262,185344.6968480442,150076.72169214967,128062.70110003006,1.0
189,176899.38110741938,192220.8566511125,205429.61911309278,201517.43872332425,175890.4085751868,181825.0202473259,147296.72794292454,125728.20482625627,1.0
190,173413.00140036724,188450.02054939084,201416.77758780326,197578.88614464298,172433.75061749257,178260.02748381172,144386.69280254268,123221.82561957532,1.0
191,170041.69849537863,184821.7769278635,197566.23240110098,193789.23237678476,169062.96168350245,174787.94260454763,141480.75409824649,120679.0656016871,1.0
192,166951.82839085453,181505.66628937362,194051.62131514627,190324.36760036444,165955.72706780056,171588.41076975863,138759.46245733538,118276.25636204,1.0
193,164480.72255213876,178846.57418333518,191226.56144476248,187540.8108317233,163467.85663926613,169023.71544543025,136585.06691267993,116364.23821504663,1.0
194,162824.88137359344,177046.8925776009,189300.5751222242,185649.97836687425,161811.56748675712,167310.41919147712,135178.65894093656,115157.87012813285,1.0
195,162085.97185641062,176209.2629745621,188379.18720964203,184757.85474086285,161093.7140380529,166556.54921113077,134654.56375805056,114771.75175212981,1.0
196,161919.18264685656,175983.8649677015,188107.30697866483,184508.38350605802,160960.62030136195,166405.40117446205,134662.1138078199,114862.63504655343,1.0
197,161818.84961801436,175855.89392848563,187959.40857739243,184374.05407330228,160889.50979192418,166327.49923481845,134676.71157735548,114918.30169187248,1.0
198,161686.48595471535,175717.1655879,187817.22636490435,184235.67293729002,160768.34458810565,166205.35504906153,134586.3857167287,114838.88174511364,1.0
199,161551.75061257664,175591.17272439445,187698.00524104224,184111.56458971233,160623.25324934183,166062.17975760493,134421.4099078548,114662.79702051434,1.0
200,161548.8239528549,175611.57215890885,187735.34618220996,184137.37869540276,160594.86878092602,166039.0927128752,134327.55246323545,114535.26718062993,1.0
201,161791.80107487756,175893.55676936355,188047.28309731797,184433.97636127064,160810.6544523102,166265.95723919006,134444.0530220889,114594.44553186082,1.0
202,162449.99639588635,176607.85382799015,188807.62535608816,185177.27221304443,161451.5084928906,166926.3079236764,134963.19814467544,115031.8881707588,1.0
203,163492.28138670418,177722.6996184146,189985.01133638856,186336.8811568247,162490.5056866568,167993.64798268268,135866.56873930362,115830.60809000407,1.0
204,164649.65758273096,178964.30094266223,191300.72085180396,187634.1351683839,163654.52327250465,169191.81623293477,136887.27571853905,116731.63855397931,1.0
205,165874.51441011237,180278.3675941669,192693.54563686613,189007.3438922635,164887.4480855996,170461.2227500693,137972.3424092576,117691.53537061471,1.0
206,166925.29571152557,181417.0386702951,193909.26519780644,190201.95869688655,165939.0648479269,171547.95500820907,138872.22438743585,118467.91488949455,1.0
207,167692.65273543305,182266.33202853074,194829.13804634364,191099.85313946873,166697.52355103896,172337.4171803311,139479.35145618132,118959.85923098562,1.0
208,168389.10294118169,183037.7552917781,195663.85597098919,191912.8267576345,167378.3934405646,173045.4643431475,140012.72666938542,119386.87805808162,1.0
209,169080.80076003462,183797.04077406766,196479.77353135135,192708.78613193487,168053.9111094958,173745.26400154916,140551.91483236803,119829.6991644125,1.0
210,169790.80373961967,184567.64230757387,197301.37549086736,193513.17593168945,168752.07604500747,174465.65606647957,141130.02566891589,120321.23568450948,1.0
211,170485.554764667,185314.8437503335,198093.2255217794,194291.22415755756,169440.82858223005,175174.45600388144,141719.89204871774,120836.3544565007,1.0
212,171035.0852332982,185906.78739120206,198721.63733910766,194909.21344086507,169988.2518246311,175738.62089627713,142191.14729406207,121247.08676961418,1.0
213,171384.52375555816,186286.18573405343,199126.87989056483,195307.1307951694,170336.55142829203,176098.5599785507,142486.44741905743,121499.42108044779,1.0
214,171575.49263165146,186492.36665249118,199346.1700327847,195522.49826679012,170526.26600691758,176293.93422024974,142649.4940486884,121640.71786385991,1.0
215,171583.00077678327,186499.84830284596,199353.54452113487,195529.7231852452,170532.4765458455,176299.9379056093,142656.22747401864,121646.98779738412,1.0
216,171400.5231132121,186301.75792821732,199142.01514857882,195322.33167110154,170350.81490291053,176112.19321296984,142505.22243307412,121518.03291200467,1.0
217,171099.27744639796,185970.02106258678,198784.22294155566,194972.81495660884,170053.34769057893,175803.2787204468,142268.0916866785,121323.74654313788,1.0
218,170594.80662640155,185419.074822637,198193.72957768952,194394.70516451006,169554.36114813428,175286.76833392333,141860.8076221271,120981.94293672188,1.0
219,169831.77562399124,184592.20021905864,197312.16986624454,193529.49435393518,168795.84831460632,174503.61996218996,141225.27864895307,120436.43008063226,1.0
220,168850.5608126214,183528.26653722703,196176.7370914231,192414.15861864673,167815.94541591822,173491.1949137969,140399.35374559986,119727.2056856216,1.0
221,167605.26874803918,182181.65526620785,194741.86140845122,191003.0345526925,166568.40554019035,172203.3417153278,139334.9263239623,118804.92242616603,1.0
222,166178.18209788116,180635.9616533783,193092.56669073447,189381.82890274806,165139.07095272272,170726.82500108954,138118.2401945387,117754.12570790708,1.0
223,164693.40971234906,179017.37094439642,191357.8519363057,187680.26472233664,163657.78717834098,169192.99985839968,136880.97341711467,116703.92981928204,1.0
224,163138.50413456213,177315.68390211475,189529.9212684799,185890.79888877383,162115.65160303732,167594.620468207,135615.38957396525,115643.94546325327,1.0
225,161403.95999476194,175422.01369798632,187500.30963493272,183904.711697233,160402.5641843485,165821.57119953993,134211.61872163546,114464.38214095858,1.0
226,159513.62861428183,173359.02124473694,185290.26564091432,181742.08214648173,158537.2668865724,163891.2408899495,132685.97114424573,113183.19015920168,1.0
227,157432.78303635045,171089.89763390046,182860.14554680226,179361.74329382603,156476.99762682393,161759.43271140163,130991.17519868692,111754.84234642127,1.0
228,154972.1343943166,168422.54308652278,180014.695019835,176567.888758495,154026.50660569378,159228.75205063508,128928.95033244936,109984.48919802697,1.0
229,152197.43182520714,165423.2332525723,176820.38039407114,173427.1575002159,151251.82458868486,156365.13643147526,126562.29240577522,107933.74419239155,1.0
230,149221.30839954974,162208.20235405973,173396.59227781885,170059.90256532773,148271.95255257117,153289.77395135254,124009.57482959975,105715.8776196121,1.0
231,146244.95480354695,158983.05688266124,169954.28167311766,166678.43581730282,145298.70285212813,150217.93648960063,121485.6819102583,103540.91702023052,1.0
232,143465.0415938328,155949.68120844898,166701.4353938248,163491.04345581733,142536.68955558556,147357.9026398114,119195.76605412718,101607.05124955157,1.0
233,140799.889358229,153028.02503495946,163560.12321492645,160419.3113526737,139904.793140773,144629.04427784632,117058.47659866323,99831.04765540386,1.0
234,138158.2809142026,150125.4716383463,160436.02355334174,157367.23705771027,137304.45927849744,141931.40254707547,114971.77911277479,98112.95917664589,1.0
235,135233.0008332642,146931.13305286472,157013.0431569228,154016.7541192466,134415.77539540283,138941.76961721524,112610.71416581608,96132.94423177167,1.0
236,131844.69024900175,143261.6311581183,153102.56089739405,150178.08727983586,131049.42686674827,135466.58542174465,109778.85699280431,93699.04074760352,1.0
237,128141.60521457599,139264.8110273229,148851.18183143632,145997.78961181012,127351.47623992228,131651.16847091718,106616.88338347492,90951.936445122,1.0
238,124329.10721905161,135150.0729245506,144472.4635946765,141690.3843828828,123532.9594055357,127710.86651514696,103336.35114023456,88096.88540822716,1.0
239,120748.79446657769,131265.64760167507,140322.4146973789,137613.3279231875,119949.65563356694,124006.92059057014,100294.92890096965,85481.70937241812,1.0
240,117393.29848436257,127610.98051485761,136408.0387642495,133774.8374563202,116608.34509445853,120549.11994564871,97501.32751216997,83107.83191607245,1.0
241,114326.5888736128,124254.74407532455,132803.57789947937,130248.83248871814,113577.4161192792,117408.58549175104,95025.04985310441,81039.20213147697,1.0
242,111624.15412197186,121272.37938822262,129583.76543437976,127108.25479765331,110925.1653956566,114653.49961939182,92929.50907867473,79338.87306443667,1.0
243,108814.03634880614,118186.38875271587,126264.01060789854,123866.0065804574,108163.64309492389,111790.36090039709,90719.48913406984,77520.02388444603,1.0
244,105616.40183244881,114711.18080382953,122552.10906355965,120227.68045702168,104997.71315298355,108519.4764143686,88093.71728780317,75288.49813565005,1.0
245,101994.63433727171,110807.73710977183,118405.27814591296,116149.80924120625,101383.67335282396,104795.1094553139,85001.2174033368,72595.16652073509,1.0
246,98176.30861880664,106706.90973225815,114057.30821981319,111866.74025486133,97553.8860626963,100851.56666845184,81668.68106688606,69660.6257155815,1.0
247,94692.92574256491,102947.95037438803,110056.505586403,107929.0085027112,94057.14326144631,97243.70906068257,78649.06187410142,67027.49694100801,1.0
248,91882.08523327176,99877.9752698078,106760.54598395426,104696.39255602553,91249.54033093518,94334.16046375915,76302.13722069853,65043.50432410324,1.0
249,89602.40415746409,97361.93326197806,104041.72734610297,102041.45569862836,88998.67829482877,91994.35221803446,74497.66288672786,63570.60337732543,1.0
250,87551.54662835611,95097.24463950824,101597.06224992168,99659.87818030055,86996.9121754113,89915.51990169342,72927.29432590258,62302.22206130724,1.0
251,85616.73718630834,92966.6097964089,99303.17589848576,97425.16330029375,85114.49866827524,87963.82677143144,71452.1850788378,61105.513970373446,1.0
252,83415.78435722725,90580.03449278364,96760.60856262973,94935.24450323949,82950.29989911303,85731.78698388404,69664.60911464554,59583.91086587939,1.0
253,81073.06400351498,88058.20629795086,94084.94539329791,92304.23474141733,80618.00673088245,83330.1422725699,67670.4586143917,57846.616559182425,1.0
254,78862.91308242953,85676.59477090128,91552.77441801016,89809.22908458802,78393.35204975442,81036.18057580816,65740.36253962033,56159.523436930605,1.0
255,76558.32416314859,83212.9664660181,88947.73090290319,87237.08038014534,76065.42428278369,78642.13608963254,63669.91177888475,54312.469504409215,1.0
256,74856.24537548718,81373.65184795969,86986.71767621272,85306.66481179638,74351.32291080683,76871.9466784737,62180.840929472295,53015.024298819146,1.0
257,74054.50579947192,80463.65934648042,85983.16956330593,84332.37169541027,73561.67357060127,76041.82510719741,61588.37678660016,52572.94532485277,1.0
258,73604.32026277359,79932.91162388216,85386.5303513582,83763.24093293017,73144.97576869569,75598.82006337025,61344.53519729765,52442.005240466155,1.0
259,73367.13922088548,79636.81225472283,85045.37278601734,83445.81222549763,72949.21248102277,75386.54418750311,61296.7397235646,52479.17334649372,1.0
260,72877.26415429007,79101.98418010003,84476.28017909401,82894.27420691658,72489.6006058772,74913.97046223178,60952.31645426316,52200.87053754791,1.0
261,72017.60545235296,78203.75423737467,83546.83728037393,81975.21558399386,71638.30152088554,74048.07952071809,60181.7718265776,51488.613445362294,1.0
262,71229.96638954477,77383.50251043454,82697.5775012361,81129.71748108556,70837.94411404108,73231.76137642316,59426.04210313395,50781.56896448583,1.0
263,70700.46720981966,76830.01009470613,82120.19409677564,80552.04091357216,70284.06102028668,72664.53765335018,58886.553155118156,50275.65874197046,1.0
264,70459.9289007475,76578.23693764461,81855.67151351913,80285.67872568259,70022.4916626519,72396.5205992969,58618.591076578035,50021.06633609433,1.0
265,70583.57227340768,76706.65747376223,81986.98881000892,80415.01015306529,70140.94242572923,72516.73950099021,58717.022550351096,50110.46639302446,1.0
266,71141.02728594393,77285.57158685528,82585.34572757507,81010.83726762663,70708.80073191943,73095.03702299568,59252.940617317254,50613.682672617135,1.0
267,71826.4589685801,78003.2205205703,83333.25249304372,81755.25548902998,71412.105231399,73814.32405476163,59917.654345281124,51232.19161713826,1.0
268,72316.87329400313,78529.78605018374,83893.31185868551,82309.9465154315,71917.14974954465,74335.99403115515,60375.915796712994,51640.60649466604,1.0
269,72660.35228846507,78908.67925385041,84304.00861097136,82712.57537930158,72264.2206683453,74697.80394107323,60666.724132220465,51883.02748096395,1.0
270,72836.08080458935,79117.35906861915,84540.5627989608,82938.82141032779,72430.9554380799,74876.44451543527,60766.74364199734,51936.58555793874,1.0
271,72963.41368970738,79274.2788566427,84721.34370494146,83108.81125722358,72543.12256850343,74998.09931883815,60809.85840403199,51938.04882056982,1.0
272,73182.6956809846,79522.46161187439,84992.69928621281,83370.03856164387,72748.77877464384,75213.02819166268,60948.29326539154,52035.56855494187,1.0
273,73513.67272116498,79883.6182499251,85378.4387310438,83747.02946054735,73072.17813095615,75546.81265549072,61208.1123714562,52252.030171344086,1.0
274,73984.45794218646,80384.85943408647,85905.52484938057,84266.74961789108,73542.08653513386,76028.28064511667,61622.213386868054,52622.552338010835,1.0
275,74487.22587174003,80915.51705462184,86460.89703065259,84816.14718737944,74048.52090016127,76546.02316957568,62085.12355892981,53047.29459794549,1.0
276,74839.36762263114,81292.30739797693,86859.30705001863,85209.11828807573,74402.76528278469,76910.02536126965,62400.60548933054,53327.882348244544,1.0
277,75027.79481640678,81499.2851979108,87082.17201538885,85427.2855939896,74590.10204365436,77104.22214020063,62556.53817655076,53457.18196344489,1.0
278,75118.27182575513,81601.1392543282,87193.53293682667,85535.31380216524,74678.11766930722,77196.0822852689,62624.146034100115,53509.07421692418,1.0
279,75148.68551454702,81636.3330743281,87232.51854921278,85572.62083889665,74706.3158029302,77225.55867813052,62643.60845077975,53522.28433781359,1.0
280,75136.05976902651,81622.68311390323,87217.80109675875,85557.91214413344,74692.70698655596,77211.1360700204,62633.078286381155,53513.22328748199,1.0
281,75081.08002118192,81560.57841205916,87149.43576503031,85491.18297490932,74637.34533555526,77152.60207820484,62592.6962332567,53482.22836226739,1.0
282,74938.94034573011,81403.43516708427,86979.1349494924,85324.221261197,74493.96628108436,77002.67124202267,62478.9369391634,53389.38972709162,1.0
283,74665.37684635266,81105.93862187097,86660.4262339089,85010.3556207546,74216.80312347674,76714.99899665889,62246.50371170154,53191.28929948238,1.0
284,74251.27964669855,80659.37905291382,86184.8363441413,84541.18952866051,73796.9756378227,76280.9299259847,61883.97320697531,52874.62632028939,1.0
285,73764.39519089578,80132.94458024175,85623.27621119372,83988.22292501965,73305.20247226945,75772.32392594947,61460.42175918755,52505.49089165772,1.0
286,73286.19878728302,79609.31891489323,85060.14777004754,83436.4367283435,72827.6276916346,75276.67170013195,61066.664163293826,52174.84665566659,1.0
287,72849.0985306811,79122.66772928729,84531.18899364426,82921.4709802528,72398.4847031751,74829.22286088308,60736.922924807644,51914.42337427715,1.0
288,72378.36197042908,78597.84686253662,83960.77420068235,82367.17933291623,71941.03730297035,74352.22874558374,60392.802616975896,51646.41549109291,1.0
289,71716.79466371486,77874.89631009205,83186.1199293923,81610.12583458822,71293.06710492117,73681.1948068557,59872.968805182194,51214.38340172764,1.0
290,70864.39576009978,76951.79483394278,82202.48882226521,80644.7553010406,70447.58508372946,72808.09804716041,59166.980430792515,50609.39065085748,1.0
291,69810.6171791044,75816.71569959105,80996.42389782278,79457.29352413774,69391.18289666058,71718.519528042,58259.19017803182,49816.98091691653,1.0
292,68547.31807426356,74462.52301203055,79561.71137675755,78041.774534388,68117.95595580341,70406.7685753476,57141.530349483684,48826.7681307306,1.0
293,67287.7746536308,73104.89901199735,78117.35537939584,76618.95764617727,66849.79461491635,69097.5534360751,56041.4340321101,47864.463586247206,1.0
294,66186.83170175276,71903.5728699945,76828.42409644926,75354.4549508383,65749.64623044123,67956.99985236439,55120.72013884814,47084.37862340512,1.0
295,65273.68562614381,70889.87302106258,75728.74273006892,74282.50934229353,64851.99091918062,67021.20513524409,54416.73799220608,46522.280224926486,1.0
296,64408.605539414835,69924.7550817378,74679.55823817264,73263.61541136318,64014.0207659859,66147.15693019053,53785.286060857965,46033.02712475867,1.0
297,63407.81829328735,68821.1330219337,73490.07453400933,72105.18565800249,63042.00061903446,65138.1335252764,53029.17253689158,45424.02593562196,1.0
298,62094.753816429446,67397.64353621838,71973.38058558477,70618.99939197682,61748.575279220146,63803.21743819957,51958.83196257827,44512.532096912444,1.0
299,60507.7079978485,65689.78516215378,70161.4504291834,68836.40298787608,60165.422212192556,62172.05276111392,50603.00846878403,43330.68393322119,1.0
300,58774.835553836405,63827.22822269557,68185.13091554286,66888.29461549476,58422.53226625822,60375.94557982888,49086.8756401309,41999.63116375294,1.0
301,57053.446253683076,61971.17507909106,66210.17363226693,64942.00326914375,56687.210985581514,58584.97266960918,47579.20634535169,40682.3763680473,1.0
302,55679.02541145415,60463.832691501084,64586.47224626165,63349.352807596515,55309.63377238406,57154.25915473601,46433.47561963227,39723.145603968886,1.0
303,54421.2498482353,59078.4832150546,63091.26206851386,61888.95195684612,54067.5175509765,55864.05322990456,45430.47680849514,38899.40650781364,1.0
304,53160.25659667831,57695.63458054445,61606.28486419913,60442.17714794765,52841.918507259885,54595.17414466127,44455.54563104355,38098.80855434126,1.0
305,52169.11930633745,56588.44408895468,60403.46195386932,59276.90432886189,51892.24956033735,53605.897317015566,43754.555089708316,37563.30588188584,1.0
306,50925.81891163116,55226.81485384958,58943.3383297835,57852.53512695578,50681.68099890304,52353.47775223525,42792.28907955384,36771.51179063849,1.0
307,49206.477679802614,53380.76638975455,56989.56016921073,55932.02929443022,48976.06220305273,50599.548825078855,41332.68442473592,35495.724792176465,1.0
308,47290.82854926659,51330.97589861956,54822.38299868175,53795.116642741756,47053.48479449258,48622.7658425345,39646.16455198532,34002.89851692485,1.0
309,45179.96558918153,49082.29757879126,52450.56422735456,51452.32819050721,44925.0935262943,46436.60523859023,37745.32228050411,32301.176731972497,1.0
310,43513.70919605135,47282.76730683367,50532.78690741583,49564.40561881634,43248.15571261442,44705.22486798701,36287.56489911218,31033.51644768649,1.0
311,42595.86142650344,46244.89866230665,49390.75722002254,48454.48053457388,42340.67300158837,43753.339029183204,35593.73675243035,30507.549748489557,1.0
312,41940.50332709193,45483.82584270876,48541.35672262519,47639.358802248375,41719.5843259638,43098.07663518781,35188.38745292584,30250.95623841587,1.0
313,41251.14578858986,44700.35487314624,47682.48775703403,46814.47085843036,41079.359837832984,42429.444462767584,34760.90783109443,29958.363116353903,1.0
314,40339.56009903825,43700.1625713136,46610.98006596705,45773.93714772646,40212.21510234647,41533.60005860539,34094.8958384209,29422.124584712827,1.0
315,39170.027640388726,42438.898276926244,45273.599444821295,44463.22393273701,39066.361650186205,40354.9701346441,33139.471566679444,28603.46698899349,1.0
316,37654.21531479988,40824.95805738415,43575.41545111963,42787.58669133401,37550.274819314975,38800.077323330705,31800.444999423908,27411.808504907214,1.0
317,36036.464727638595,39108.407487423254,41770.90827201403,41002.10230956189,35914.64330131208,37122.52241723343,30317.87817288393,26075.06805351295,1.0
318,34863.917881608606,37844.44193934641,40424.489536927096,39673.305099433135,34723.01729057982,35892.812446623524,29259.685064908084,25147.644004159214,1.0
319,34113.948711283156,37017.57466397898,39529.29324428856,38796.88156748877,33971.121136487935,35111.110366271765,28629.672932685506,24625.280840830714,1.0
320,33813.98500666538,36659.721584830186,39123.18745142102,38410.66923073294,33693.96403277104,34815.515757106,28467.662958715304,24543.192095263774,1.0
321,33861.41944863086,36668.20903717651,39102.429510726004,38408.3427797975,33778.83206314594,34892.08567509282,28654.173215012233,24781.01684988908,1.0
322,33844.4566937398,36622.30858792153,39036.54584810133,38357.72045677982,33797.739297906126,34906.24865790592,28761.259179917488,24927.26360942262,1.0
323,33490.5326571059,36238.88532043884,38631.86585472228,37964.148356729405,33463.93887258045,34565.29323010185,28504.880515248504,24715.15287915268,1.0
324,32718.085011722706,35432.64075986981,37797.79801591248,37137.388527166964,32691.069673552538,33780.00456245821,27797.30216541651,24062.056186038375,1.0
325,31782.003129033674,34463.39249765922,36797.41878950536,36140.358824062125,31735.61321539158,32809.16347249478,26880.98871008975,23196.819143045876,1.0
326,31116.806959939677,33768.605643116185,36073.62214721376,35418.141502343926,31046.54877846108,32105.36861207156,26215.34745846448,22574.98745531912,1.0
327,30950.719822138923,33584.05533614715,35870.61837640609,35216.57571794419,30866.163215850505,31915.907538558204,26045.69662549208,22429.439971420587,1.0
328,31189.199262266007,33819.66722716112,36103.461547018866,35451.38397945029,31107.54563684632,32157.054468087994,26289.32157859755,22671.741881553888,1.0
329,31566.952332552966,34207.57945720688,36501.653574044765,35851.54844278575,31500.789282896872,32556.855391639627,26677.177745115467,23038.846116870365,1.0
330,32013.036028923867,34668.63411753539,36978.43942798312,36329.84445111777,31967.006290106612,33032.15826300408,27139.729706790753,23478.08286874863,1.0
331,32284.469991878952,34954.95808295597,37280.03938697563,36630.43738902139,32250.39259392934,33323.44646164531,27413.525300027388,23730.847055944592,1.0
332,32266.33299249512,34947.89278183241,37283.17403418169,36630.11363650918,32230.822527105574,33308.21480916583,27377.640103523292,23681.405456654604,1.0
333,32017.186241368447,34705.34175855243,37045.18580029365,36387.4267165551,31970.205416889967,33048.556723117785,27096.653181469912,23395.331832955657,1.0
334,31785.790641036274,34480.27994834325,36823.2867103274,36160.1743821812,31722.75524737958,32801.22154493967,26820.43866065078,23112.152506776347,1.0
335,31854.685922014203,34558.380719016925,36907.19410572357,36238.72023869327,31777.50075274117,32857.6727015069,26841.933300898305,23118.73455810549,1.0
336,32088.382712883096,34806.148180122844,37166.08112706057,36493.22591078373,32005.39051811264,33090.36431319742,27038.95461049476,23292.602562471326,1.0
337,32421.169910232504,35156.268855049,37531.13639253398,36854.5162622729,32338.532324295757,33430.4879502801,27344.641692089306,23570.13541313893,1.0
338,32834.826671146904,35586.00008111041,37975.627683707855,37296.039105519434,32756.962570334472,33855.53837973048,27746.39578474384,23949.087883449105,1.0
339,33089.08892986531,35855.71709133372,38259.06437281681,37576.20194399623,33014.04094291774,34118.28316023023,27984.79054385839,24165.70042035793,1.0
340,33212.90456726615,35991.42664354852,38404.92475757699,37718.74527381441,33136.14875883358,34244.51483887986,28088.541889264245,24252.650095546105,1.0
341,33259.88414377625,36046.04315425485,38465.65919925497,37776.57075175461,33178.8724697214,34289.423714715726,28115.78005725904,24269.49201191503,1.0
342,33272.57764353333,36062.85276373935,38485.614642735876,37794.63253282897,33188.18978996964,34299.647907587634,28115.97230730465,24265.39340645124,1.0
343,33289.500530743695,36083.0082445175,38508.008585705924,37815.514222822305,33201.83475747653,34313.96049335864,28121.246689847678,24265.646650256807,1.0
344,33298.92158476749,36093.27005939056,38518.51521823371,37825.30335622534,33208.6919307615,34320.474266747246,28126.98621917106,24269.73976871785,1.0
345,33213.254127439825,36006.68995622589,38430.251340168776,37736.23810648546,33118.00924262643,34228.03857527051,28038.38675310799,24180.45318856603,1.0
346,33099.99520476107,35887.963688909666,38305.716533801904,37611.51984655965,32997.71382604971,34103.7615702458,27927.648043352354,24076.025778018266,1.0
347,32983.10376088523,35760.936916927734,38168.95109838683,37475.73558455722,32874.20850883772,33974.54554540842,27822.22248266853,23984.55027903002,1.0
348,32863.170441964176,35628.613230800074,38025.115036144976,37333.99308675442,32750.299590837218,33844.563696390214,27720.08514495627,23899.079866082386,1.0
349,32791.16762237503,35543.06234683971,37927.65342017398,37240.299534847654,32679.897519083548,33768.818750093174,27676.014270907413,23873.07139125959,1.0
350,32706.77933159345,35443.73474375005,37815.90336642075,37133.86399023728,32602.025739068635,33685.830169206325,27632.356249779423,23849.830533955686,1.0
351,32578.113692156658,35298.00320914985,37656.258609370845,36980.434351745615,32481.805543091315,33559.826729868575,27553.920366942988,23795.319086608506,1.0
352,32368.897061756095,35067.571617967114,37407.910946669275,36738.25085966275,32277.28205725882,33347.24473999107,27397.72658691928,23669.342033921323,1.0
353,32017.464851819463,34687.22835000872,37002.374557692434,36338.66306629129,31923.42417349089,32980.86730939961,27103.107586096987,23417.938351837118,1.0
354,31511.823739454525,34146.53164703522,36429.84896105192,35771.82965535918,31407.736153984082,32448.780438612917,26649.878976729866,23015.91823032283,1.0
355,30935.69474853175,33530.803768345715,35777.33317143112,35125.55767354327,30817.34816516264,31839.50883022234,26122.50013701191,22544.568532118145,1.0
356,30493.564199135915,33047.33714105857,35256.24169688255,34612.414883050966,30366.001891957432,31369.651470718458,25738.642353703573,22218.31612288164,1.0
357,30201.44180174955,32715.634093828034,34889.697561092675,34256.04672024194,30075.758057579216,31063.51459106648,25521.329905550523,22055.39379235276,1.0
358,29980.746877086905,32458.472480214714,34602.04510048428,33980.30715944947,29868.003944086424,30842.806083516523,25392.115385446486,21975.521637558704,1.0
359,29831.631024467635,32275.960820379787,34392.77003943358,33783.013252176315,29736.094615679172,30700.336530466997,25337.100772070247,21962.637447753605,1.0
360,29509.267800011006,31915.095519497147,34000.822846678944,33403.38263161752,29428.705154019382,30379.786224805164,25119.569893113272,21798.558764854773,1.0
361,28793.016771032013,31152.095683568317,33198.15123423154,32612.30841399561,28717.307316095255,29649.034202767078,24508.546200461387,21256.9306082153,1.0
362,27852.566508291955,30156.3553571805,32153.18676676502,31577.578529623854,27767.32355970303,28673.118662452995,23659.43097110546,20489.41089631998,1.0
363,26894.258205612376,29136.283646465978,31076.55221981674,30511.00824144484,26789.121578630493,27665.670643936814,22781.881977523833,19701.35766452209,1.0
364,26167.681762143206,28346.38023898983,30228.91302530579,29674.71611039678,26044.446508792193,26892.93359357552,22137.515711933516,19145.869616508247,1.0
365,25731.08474640564,27851.828526328758,29682.93497622735,29142.338355024443,25604.973715625427,26429.812031846075,21798.266352228027,18885.190472307233,1.0
366,25481.88274604819,27553.97529770639,29343.593050796684,28818.495343894305,25369.4942295387,26177.13883238854,21661.320729365627,18811.181970443296,1.0
367,25274.310596507425,27302.630959464364,29057.05417061782,28548.944018996124,25187.62737143508,25981.958515956456,21583.828066356848,18791.101673989975,1.0
368,24871.215048999074,26853.805127547887,28572.3659334479,28081.493137530484,24812.04627751583,25591.64791667744,21324.010617366694,18596.604944750055,1.0
369,24196.735612321358,26127.65704069734,27803.82745760359,27328.57365101128,24153.104928825538,24913.746440307095,20785.30515463634,18135.094797046775,1.0
370,23254.952268865363,25125.00215858391,26748.27787426916,26286.21546894756,23207.535974380957,23942.363682729858,19958.393145829392,17399.91574778178,1.0
371,22132.743860045248,23932.881057273135,25493.46956753593,25043.433510988394,22066.794562245013,22769.633446882886,18936.116625724022,16483.815132334414,1.0
372,21113.589435585043,22840.80680278126,24335.520785048513,23898.215103462808,21027.614159363417,21697.52286009639,18013.896803038682,15671.143612246273,1.0
373,20531.957514559665,22195.171550817446,23632.33819562476,23208.961983467543,20437.900537177233,21080.836106296447,17528.359256083793,15275.119152562622,1.0
374,20349.64131567207,21962.348151782673,23356.083069032105,22948.362642512122,20267.432315882725,20892.38568294181,17453.201550377944,15264.48646544085,1.0
375,20333.741696940502,21906.531998327486,23269.352142439482,22878.800751416373,20281.435532567488,20895.715768313272,17563.565729345002,15424.049431860027,1.0
376,20306.1175126931,21844.155720088347,23181.761722683936,22807.734680735743,20288.337831951816,20894.848195097693,17667.3920667781,15572.111936718067,1.0
377,19875.118518428306,21373.413795910907,22680.79163522389,22321.628065221594,19882.615468280695,20477.357882352706,17365.663869141536,15328.731602960106,1.0
378,19114.19554009902,20561.49096585349,21826.745643540293,21480.3327199112,19128.2470623284,19703.361286768915,16719.57309402474,14763.218981426484,1.0
379,18238.098886857784,19624.813118290207,20837.207727281944,20501.352107760256,18241.623187154033,18790.803840157245,15941.831224110652,14083.312208790223,1.0
380,17209.18082079392,18533.5041434496,19689.227591690757,19362.223595783795,17191.998310943796,17712.516080716294,14990.966289382472,13232.122620672582,1.0
381,16468.444307309837,17738.874318145532,18844.69828389265,18527.060997942757,16436.56096880877,16932.73980860375,14317.468413151102,12640.353106831915,1.0
382,16269.200228020254,17502.415142911832,18575.016282901397,18267.97561552772,16241.722800566604,16723.773683432253,14185.612987184979,12556.602909715692,1.0
383,16600.278746313503,17817.264719620594,18877.368199968423,18580.022866442327,16593.280752644507,17072.60709020838,14572.950280781002,12950.519258952269,1.0
384,16973.38839898464,18185.01435832585,19243.442637295695,18954.757099133778,16994.473096461155,17476.389164832297,15003.863780297805,13375.149847281102,1.0
385,16915.8397987536,18116.220935963673,19168.8271986586,18889.01179392878,16964.191604952106,17445.5209618583,15024.148509291532,13411.472215763246,1.0
386,16621.182507914,17802.803297916427,18841.45525715201,18567.80252335357,16680.91865240238,17155.817497698405,14790.29496652695,13209.089632788164,1.0
387,15992.892488307461,17143.439182376045,18155.518110629077,17887.539850902125,16049.981936020198,16510.808650707768,14217.456001040775,12693.460757760322,1.0
388,15123.062833973923,16239.340299073147,17220.121567278013,16956.713741613898,15165.883375617943,15610.46943975339,13384.167959392937,11923.520830878015,1.0
389,14657.705701645633,15747.3579097265,16702.501703815462,16441.69644011035,14682.002399955649,15114.719695150447,12925.219027566742,11505.957341228761,1.0
390,14548.26994695197,15623.717500282512,16565.4229583221,16307.794025510613,14569.675696833418,14996.584448202062,12825.75713557238,11425.047597874134,1.0
391,14798.16225652391,15874.863765872004,16818.34763541996,16563.903376855666,14831.26290661916,15260.67690319638,13086.685337084236,11676.70389519469,1.0
392,15251.292305743824,16340.350189351622,17296.738368623388,17044.469602651687,15302.903275180826,15740.967919905323,13548.962636017484,12111.405936317662,1.0
393,15517.318244301063,16619.665867412514,17590.028640227305,17338.681509685295,15584.947678694398,16031.177659325193,13821.527818249095,12359.544382265882,1.0
394,15607.611588555701,16717.079894991188,17695.52924773419,17444.02854282523,15683.113195166698,16133.83414787352,13916.584731980292,12444.769102869406,1.0
395,15446.77047592575,16554.000467977115,17531.459490032543,17279.349008675283,15520.6278002856,15970.806069580118,13758.361677014584,12295.881490366273,1.0
396,15169.916992613127,16271.041633555045,17242.604110342418,16989.049765027794,15234.412752368533,15681.332931868264,13473.513403748893,12027.385294230353,1.0
397,14986.750650033036,16085.175782867647,17052.257734998493,16796.029598207377,15037.580204284814,15481.947888479302,13262.987237502408,11823.396175547045,1.0
398,15005.067301363544,16105.174088660053,17072.54841169507,16814.663927306083,15049.656791653648,15493.971380224086,13260.846589452985,11818.77358475462,1.0
399,15207.97735671752,16318.678055727765,17294.585543517158,17034.335098405114,15251.569245764353,15699.96593926517,13439.078329979202,11976.444487888839,1.0
400,15532.58459191457,16655.638971420667,17642.99503930495,17381.60939174209,15582.950165552706,16036.987418987219,13753.577996527261,12269.425427233402,1.0
401,15747.144647718946,16883.057842027836,17882.672829018262,17620.152680768442,15805.125432357381,16265.026103832217,13960.905937031474,12456.225589366444,1.0
402,15834.909111538496,16980.617004760137,17989.619572212603,17725.84765998434,15898.009452743725,16362.318304471652,14042.816371004817,12524.840926448192,1.0
403,15789.130837465033,16942.36814530075,17958.137952641377,17692.447426620893,15852.65352239671,16320.026600070914,13984.026751362577,12456.577649139124,1.0
404,15724.654337013653,16880.74325625899,17898.69009625335,17631.296991534015,15784.676969150561,16252.875071727472,13906.315854677528,12376.99550964192,1.0
405,15699.332194389452,16856.757421248676,17875.359592132467,17606.636261406406,15755.489546606796,16223.82510607774,13869.971688134705,12340.461271489006,1.0
406,15714.688546966368,16874.112076031666,17893.88838496329,17624.12705193877,15768.16484370809,16236.77541988925,13876.712031723826,12344.765228493017,1.0
407,15715.40926764514,16878.12304391941,17900.225002736453,17629.23264660689,15766.435288221159,16235.533672271342,13869.230585686328,12331.695628419038,1.0
408,15761.89809230346,16925.818905531978,17948.726112345677,17676.99957188086,15811.05917244244,16279.688964771887,13912.880845355894,12373.202175053075,1.0
409,15847.658626694914,17009.502209876384,18030.467958388253,17759.27509142898,15897.36108333617,16364.17748526134,14007.274085062038,12472.241186310463,1.0
410,15848.569832261992,17008.48611067007,18027.413556801825,17756.383762288475,15896.958452096731,16362.155166639299,14011.539627942278,12479.350980967014,1.0
411,15840.144636354386,16997.417013956496,18013.874614190903,17743.37328099978,15887.907037776176,16351.867809681717,14006.818174228614,12477.65924824312,1.0
412,15849.590663114743,17005.067676497893,18019.937108192007,17750.397905579033,15898.961373777569,16362.668458207985,14021.038940397932,12492.539538598401,1.0
413,15867.713843033687,17020.479057149456,18033.487516976,17765.814733657568,15921.947049317887,16385.447988927976,14053.032603389158,12527.237657544614,1.0
414,15826.46162276134,16974.200793679658,17984.041697346413,17719.114132341456,15888.31954759386,16350.341896260154,14039.233196281659,12522.000989494942,1.0
415,15706.840344111859,16846.954027691965,17850.563893355717,17587.8562813922,15770.870458615304,16229.541990293515,13942.326233990261,12437.222721225604,1.0
416,15589.065151178707,16714.330074998707,17705.28062338372,17445.51012039675,15651.63052126027,16103.502367142088,13853.383714511026,12372.630917314538,1.0
417,15406.738174537535,16513.79541588852,17488.803515992855,17231.935727679014,15464.68410555399,15907.81103274304,13700.526325987423,12249.057001117895,1.0
418,15202.903679384824,16291.937787113353,17250.46257277465,16996.2974304307,15254.419613622833,15688.80491746073,13519.927691746416,12095.4153014208,1.0
419,15052.096982869552,16124.058431774403,17067.13384710106,16816.505871838544,15100.852418001625,15527.528279841155,13393.260158706315,11992.325271360027,1.0
420,15044.619070891162,16101.586485575393,17032.238721456513,16787.091971321493,15100.142734307316,15521.570156939777,13422.568916803471,12041.258294361185,1.0
421,15129.436095666737,16176.895337542092,17100.661695048228,16861.315918308264,15197.93916661911,15617.657732985906,13545.539432420788,12173.283674036022,1.0
422,15200.796947696792,16240.093034803262,17158.395320580395,16924.538664874566,15283.169483312828,15701.939133915503,13655.910271172912,12290.75114351562,1.0
423,15076.956847920097,16102.540800010242,17010.52783000341,16782.06707036272,15169.29202567581,15583.762367420826,13578.35670489411,12232.569685769151,1.0
424,14731.484108390465,15733.084733302443,16621.44583957845,16398.906732091404,14827.320463035167,15232.001914375653,13288.656603547573,11982.50830369064,1.0
425,14246.754528339106,15218.169797950646,16079.949675942125,15862.965857784866,14338.364863404433,14729.312117253634,12855.84098337922,11600.101762896169,1.0
426,13740.70617431078,14677.884581540096,15509.225226605604,15298.432930155092,13826.04373561674,14201.176537387275,12402.8591825878,11203.491472012698,1.0
427,13435.10820471263,14342.262112625649,15146.733943544625,14942.736094975864,13517.938292971252,13880.104591618008,12144.180474869707,10989.22138766461,1.0
428,13415.878231574454,14304.198478946337,15091.768482996096,14894.135583837799,13503.427310898735,13859.110369706816,12159.573705891742,11024.176931705233,1.0
429,13535.362459187132,14413.738940451914,15193.661241592434,15002.517715345048,13637.04867054151,13991.543528479477,12315.011496522347,11183.143018731034,1.0
430,13648.053199476175,14519.032590574227,15294.828929873403,15110.52445869917,13768.908591617084,14123.974987503521,12472.165069555556,11341.943464722986,1.0
431,13600.589111384565,14458.26088734789,15225.238898543941,15048.384412084553,13739.145767505524,14091.912294014153,12481.64867078197,11367.2177679023,1.0
432,13295.65382462099,14129.222484870006,14877.410906651558,14708.114485812903,13444.19691769021,13788.871105683227,12242.40926290747,11165.500000511187,1.0
433,12677.957201779882,13473.970135452077,14190.820703757152,14030.436686247109,12829.437722627004,13159.259268948017,11704.24764452144,10691.560406203273,1.0
434,12007.92719521079,12759.61662844885,13438.33467260708,13287.133383275761,12156.124627740985,12467.591876025392,11110.510533863853,10171.723735525755,1.0
435,11596.956434461226,12309.915870516346,12954.250018558596,12811.456306796066,11741.04377287457,12036.725534640434,10756.889476576247,9875.898830555338,1.0
436,11422.252590196398,12107.589578284767,12727.543358106219,12593.152968181033,11569.323156821554,11855.776181418873,10629.360653074633,9783.088673167249,1.0
437,11690.488890646642,12365.629411209995,12977.403887448796,12849.387195383999,11847.962114444492,12134.520103503526,10924.297953446112,10077.204398710432,1.0
438,11969.10686339898,12644.866605571002,13258.917479045045,13135.844039108735,12144.025408794192,12434.599163328936,11224.983755701358,10362.086971260685,1.0
439,11917.641868042989,12584.466548359667,13194.245312104254,13078.457406209223,12114.67013376332,12404.857025856323,11228.891233683471,10375.11655515925,1.0
440,11738.129603789088,12387.73055794231,12985.265856983913,12876.249812838585,11947.942544558573,12233.6950707769,11107.079646105478,10277.975050385392,1.0
441,11292.798066453246,11912.506815875773,12485.642199819073,12383.703625498858,11505.446861929164,11779.992632753467,10725.911964240913,9944.782337430146,1.0
442,10633.47033404908,11211.656147149175,11748.859267420396,11655.111013033644,10842.528275082517,11099.298999895982,10136.841447154113,9424.042870683284,1.0
443,10190.114570021531,10726.427003650393,11226.857165378347,11141.992345257217,10396.921907156,10636.391154389097,9763.411663979268,9116.389492266007,1.0
444,9940.659448636774,10449.315422008036,10924.644398654034,10846.724851047999,10147.866101917,10376.234193414155,9556.869406065578,8947.865621608233,1.0
445,10209.220417747594,10712.039455185697,11181.240559885387,11106.792730449039,10421.013045884118,10648.236780300263,9830.975416559793,9217.4346099938,1.0
446,10507.342108050989,11017.841337175487,11494.586968367923,11422.416105824266,10733.3277162782,10966.240861362356,10133.005653027529,9496.504336750097,1.0
447,10598.058795728175,11112.11078244612,11594.778187384467,11526.427926668262,10843.627913192295,11080.88075500492,10252.311349364563,9606.09308014786,1.0
448,10626.074813924548,11138.488934977642,11621.991029139042,11556.476476639185,10883.92039750731,11122.48208805725,10308.866764525977,9663.035582179098,1.0
449,10348.756408268031,10843.728305164337,11313.550095887664,11252.837999152624,10611.643670813239,10843.896017947205,10077.239751500463,9460.372604121703,1.0
450,9863.727848008311,10324.883446300468,10766.3725010197,10713.368226318618,10127.709783061815,10346.556416542455,9660.343847225902,9100.497886153851,1.0
451,9518.927637885638,9948.524193061983,10362.002565243629,10315.018338345031,9778.526313137138,9984.319775113781,9365.85318055634,8856.35917016425,1.0
452,9383.526869416386,9795.859258473181,10192.780567691474,10148.592352569898,9636.742151452645,9834.986918227274,9245.924888598052,8759.929854588348,1.0
453,9460.818879626224,9873.088882917336,10268.599718154706,10225.008298013972,9713.019445404854,9911.264769288831,9315.294035453806,8823.967183396468,1.0
454,9701.307986977024,10127.034575585476,10533.934579811415,10489.27113125483,9958.254685152047,10162.572701264657,9534.449825459275,9016.397469147903,1.0
455,10059.085165043329,10501.003367019419,10923.102482943053,10877.705199521619,10326.55078329971,10539.10662064634,9880.685266575776,9333.893335891727,1.0
456,10203.19364073164,10654.372812733474,11086.39733321599,11040.92559623813,10480.390601997293,10698.147226711688,10028.440616903476,9467.395149656604,1.0
457,10135.050968505788,10583.585257678133,11014.448286175744,10969.764865901136,10415.33290190951,10632.44354102214,9974.444888599324,9419.701334614228,1.0
458,9914.029595225986,10349.728939298428,10769.811475063645,10727.161390311068,10192.690119954257,10404.420155425809,9777.738892367368,9246.371160970843,1.0
459,9622.662331464979,10039.743479811996,10443.98677325495,10404.382720815294,9898.10869435528,10102.162792204426,9517.998791157674,9019.088656615244,1.0
460,9514.422742199366,9921.817571307098,10316.827293624268,10278.228694986286,9784.715173046994,9984.294105806626,9417.559978864107,8934.305714851915,1.0
461,9644.217150601302,10055.37551720078,10452.234902156162,10411.735166522869,9907.536530442934,10108.374723268602,9522.732408275244,9030.358191889092,1.0
462,9886.264543299214,10308.290960686247,10714.164924866442,10671.430227988405,10148.830880101423,10354.862754544412,9739.624609570046,9227.11988586717,1.0
463,10076.766123485922,10512.000482533842,10930.031961331326,10885.27480811974,10343.559805689665,10555.446721735207,9911.449688906083,9377.153231564445,1.0
464,10159.980744707851,10604.563875431015,11031.691008466496,10985.550168164826,10430.500915970348,10646.299518017959,9983.838686191066,9435.379960531147,1.0
465,10149.444090633693,10596.234226092234,11026.218873948326,10979.792163447624,10422.23610768808,10639.103621302402,9975.707298212064,9425.98332390379,1.0
466,10031.433743405314,10475.49657027656,10903.459857022423,10857.188166245653,10303.922145953238,10519.43073153184,9865.830943416742,9323.693595828512,1.0
467,9913.390707209066,10353.688102440834,10778.019425326132,10731.382598721735,10181.927136827273,10395.081083912466,9748.897479838608,9215.004769235013,1.0
468,9871.465351834751,10310.039529281077,10731.998163327513,10684.543987604038,10134.732089366333,10346.371938121356,9699.42579568097,9168.737121136746,1.0
469,9890.206888485338,10330.3569363601,10753.118305720463,10704.916574155553,10151.739221471737,10363.56413198568,9711.007846782775,9178.139335321883,1.0
470,9901.198461746773,10346.330590816888,10773.003283484586,10723.544411961379,10162.708554766717,10376.375684934685,9712.059128543391,9172.039151736057,1.0
471,9954.879538853336,10404.326415399388,10834.770129206274,10784.386275910896,10217.57087690122,10433.03448604313,9757.844116905264,9211.156395036533,1.0
472,9972.28455033012,10424.4480513324,10857.462253335194,10806.572085034035,10236.191366141327,10452.65041542551,9770.642493044896,9219.720643411589,1.0
473,9971.293778528641,10423.802163542634,10857.244283293454,10806.266376696292,10235.475478328737,10452.082429259448,9769.068689331045,9217.743841560117,1.0
474,9971.006205599855,10423.598798023912,10857.013162882544,10805.978330277367,10234.611059703337,10451.23916155755,9767.938949238642,9216.239793710814,1.0
475,10000.98530135892,10453.005376697964,10885.993789837776,10835.245537595134,10264.804004238973,10481.410479084758,9799.314437719122,9247.591643830889,1.0
476,10012.101991307616,10465.583006866336,10899.791239745244,10848.77907452173,10275.858435431375,10493.222942220218,9807.470126066048,9252.353722383577,1.0
477,10015.637523762825,10469.246967195528,10903.713028230026,10852.902063839927,10280.289673128962,10497.88633870304,9812.30521565697,9256.288044448991,1.0
478,9937.056103277162,10387.630781455937,10819.985256349728,10770.196952601189,10203.698473056347,10420.20752378193,9744.509942612107,9193.774272581051,1.0
479,9851.373102896847,10294.39036046362,10720.492309538995,10672.35744894714,10117.906205178111,10331.169356941331,9673.054192303847,9133.997206603868,1.0
480,9856.068619879743,10287.85582786814,10704.64012413555,10659.118162886605,10123.13502558469,10332.199412422342,9700.214403142225,9177.518247574233,1.0
481,9785.174586398547,10208.85156119999,10618.546447842044,10574.666951539868,10051.17141397683,10257.029072574895,9642.12871880423,9130.434600634537,1.0
482,9800.903296640527,10219.658424058078,10624.794535694951,10582.42708957123,10067.018784676757,10271.091742353048,9662.948275257486,9156.006411385799,1.0
483,9924.94112607161,10345.208787354288,10751.724174838526,10710.114893782256,10194.133087318636,10399.779389735186,9784.707172849105,9271.67290228664,1.0
484,10048.104556577318,10472.673705900706,10883.626311496062,10842.710679136691,10323.00026565135,10531.781554329802,9906.559039983706,9383.594000050745,1.0
485,10067.591174498024,10492.85301526435,10905.336177067515,10865.638920632575,10347.827746086537,10557.928265055793,9933.042277329485,9407.104085612535,1.0
486,9988.042612993842,10406.794269174397,10814.424205154119,10777.098305566953,10272.834999014212,10480.73218283196,9875.211995088386,9358.96892912374,1.0
487,9666.690337455988,10071.57185844795,10467.477888020461,10433.567401252862,9954.594136636026,10155.974121808411,9588.884397172014,9096.39392199032,1.0
488,9405.099626790816,9789.880108567118,10168.016376373676,10138.093499661461,9691.494807568411,9884.024889044833,9364.188756418724,8903.004222484094,1.0
489,9337.747416176919,9708.462676163968,10073.61289989352,10046.65807166349,9622.482774068441,9809.154248139412,9319.868305204238,8877.547979264316,1.0
490,9303.440362650452,9665.570814201312,10022.38218395628,9997.80823532885,9587.805801888111,9771.188397120743,9295.291479734069,8862.074862126812,1.0
491,9374.762826352553,9734.203002216434,10088.980027696734,10067.173287081987,9665.63188229771,9849.53170905602,9376.05769716999,8942.61779282371,1.0
492,9469.331175197825,9833.78825801241,10193.770994970027,10173.121840237327,9768.247706465358,9955.904149749605,9470.88750309969,9025.961534838127,1.0
493,9544.044994306605,9915.36033596731,10281.86500354472,10261.239948587368,9849.092807602607,10040.73292751862,9539.782605657787,9081.069275277048,1.0
494,9547.174635751844,9916.094929535057,10282.025209199628,10263.564107936605,9859.846629322421,10052.17319882247,9560.64694599228,9104.077023846714,1.0
495,9196.799840013055,9549.43747196799,9903.05217372679,9889.949920982594,9516.5649096273,9703.537836839412,9257.508944029625,8827.287699175038,1.0
496,8887.3418014324,9215.620124827747,9548.610676494776,9541.00622220435,9205.981413327821,9382.973106000629,8993.362739828186,8599.293870360329,1.0
497,8752.182359395994,9058.557587222667,9371.895872586536,9369.16634723154,9068.292378819095,9236.24388026439,8894.621013210308,8530.505976261662,1.0
498,8590.181146685374,8878.797234412854,9176.045390974243,9178.350104719824,8906.721258910997,9067.925761955594,8761.587365623875,8420.855993987074,1.0
499,8662.163505946299,8947.971275149748,9242.69897454893,9247.50391394384,8983.191805211227,9145.021368733309,8836.288815670021,8494.993303536627,1.0
500,8840.497024116185,9138.689175297493,9444.56425028052,9448.38424758305,9168.015211711498,9337.180198710148,8993.40287359153,8628.938846721718,1.0
501,8954.278869501475,9263.449837317165,9580.112602329857,9583.443103884922,9290.431984818553,9466.22516093096,9095.901671354368,8712.045111037785,1.0
502,8964.940560935602,9274.976201751522,9594.274021130035,9599.606849747997,9310.50527655966,9488.726438334865,9120.135236719007,8733.734749599278,1.0
503,8853.658969405684,9154.618051388232,9467.59699118214,9476.026335870816,9204.42449814354,9380.431807296589,9035.6334406515,8662.258317197005,1.0
504,8605.747016396086,8886.494624137165,9182.506196223041,9195.259871815171,8956.492604851006,9124.613379197985,8826.087226502275,8482.195195105009,1.0
505,8247.590870601864,8499.864569326443,8771.365457221138,8790.40625546643,8597.687474814826,8753.990959488216,8519.409808096752,8216.36552691079,1.0
506,8039.884927565574,8272.2033897216,8525.77062508207,8549.428350523503,8388.397893662277,8536.7528324537,8341.291782369432,8064.663805448971,1.0
507,8040.819606860357,8269.472966026757,8519.275466313526,8544.623483962043,8390.522849441997,8538.223838299149,8345.051733243083,8070.506102929304,1.0
508,8126.988156107966,8364.009498894573,8620.859903272405,8645.949001174551,8480.883379669638,8633.220475330723,8416.10433408709,8126.3234061421745,1.0
509,8344.744252019806,8598.812657305441,8870.341518719773,8892.980944843319,8703.37255815394,8864.12640127852,8603.58661539212,8286.053190618277,1.0
510,8529.899530973637,8794.201671262348,9075.984266626318,9097.718307941277,8895.588795774724,9062.397011794643,8782.199501723819,8448.7828596687,1.0
511,8385.58829582102,8644.439597226266,8923.438446777101,8948.37012017697,8761.675990515576,8927.309579050388,8669.952934330442,8346.402790050523,1.0
512,8165.798354199369,8404.675702683595,8667.540771975908,8698.162313409824,8547.60778419361,8705.088238886428,8498.528798955569,8205.604036800734,1.0
513,7968.388852642409,8185.752530108453,8429.973998608633,8465.867978592585,8351.455457293057,8500.104790229192,8341.854992707373,8080.477135134076,1.0
514,7852.817697430591,8056.401352464892,8287.189075027327,8325.761345418747,8232.096668147358,8375.230848581088,8242.83467521744,8000.167727160634,1.0
515,7867.159797517792,8068.807613593495,8296.668406235682,8335.095800194755,8242.605457312591,8384.670308031753,8251.451470655122,8009.089221595502,1.0
516,7999.923842760675,8211.355009556559,8446.624210198412,8481.979341028293,8370.250364950576,8516.021949585993,8357.254933983486,8097.464959232792,1.0
517,8197.942884549248,8422.129672869263,8667.765474451699,8699.886476442645,8566.239715993555,8717.415856762556,8532.071794451076,8251.098525372821,1.0
518,8312.603640814068,8545.174090667228,8798.784513492454,8829.644093858544,8684.360415524094,8839.457026956497,8643.51683453643,8349.813981277,1.0
519,8291.282392917323,8523.669896152238,8778.26549047252,8809.80268016291,8666.377988833192,8822.091062068197,8631.97956788384,8339.021745435917,1.0
520,8216.722675963376,8439.26465922585,8686.31264011391,8720.991060678976,8596.027398466813,8748.560855149188,8581.721094722461,8304.118062366966,1.0
521,8072.059754055883,8280.59843577404,8516.216797358642,8555.226738644478,8456.361297730582,8603.928038387596,8468.958402614595,8213.464765994122,1.0
522,7923.977170982878,8120.778693461923,8346.284848825906,8388.417615368146,8310.363946577534,8453.532858280441,8342.974363014775,8105.457429675681,1.0
523,7943.554077623543,8136.48129222067,8356.51451175303,8397.216775331455,8319.01067238979,8458.987640683812,8349.51279365613,8114.8368918192755,1.0
524,8169.754222850989,8367.048137325604,8587.57980349088,8623.67988749869,8528.566358982616,8667.312386127289,8543.888851582245,8298.524461803518,1.0
525,8266.292539959042,8472.22059106013,8698.398342463108,8730.5194828262,8616.777519397854,8756.692186454196,8618.26791097398,8358.398400556121,1.0
526,8329.510326129848,8542.533325052496,8773.551041719043,8802.518157306778,8673.525128119323,8814.214768045606,8664.97109549779,8393.270287283978,1.0
527,8357.481102098203,8573.675969150005,8807.128915539211,8834.765565158925,8698.939778364584,8840.041028046002,8688.092882696998,8411.375875423248,1.0
528,8361.828137287068,8575.243353153086,8806.961423914152,8835.937774023381,8707.330613696939,8848.346475214505,8699.867256849366,8428.483429091471,1.0
529,8310.056713211468,8519.04848962982,8748.132402706538,8779.893515134365,8664.030110945072,8805.825193189321,8662.925666172225,8400.501199166332,1.0
530,8140.655952897556,8345.527161825781,8571.94213740979,8606.625858450263,8502.992087554114,8645.313141473247,8505.056904758005,8251.471960585612,1.0
531,8116.008165394299,8318.896374223294,8544.154717726082,8580.35891910337,8483.0196929711,8625.860982328853,8485.935495552032,8236.565865667068,1.0
532,8089.784366174007,8294.137268364893,8520.412444719725,8555.920120727907,8455.686982908395,8598.703343984966,8458.94117316277,8207.508864899233,1.0
533,7989.698040643404,8196.232038797987,8422.781106821903,8455.646162499905,8346.401233927329,8487.421209126043,8349.938554296768,8093.864767873068,1.0
534,8036.442892608325,8243.569208378924,8467.970736336065,8496.932538835688,8377.369363700138,8513.762677560695,8384.684024242817,8124.169992911003,1.0
535,8165.26945583537,8373.675114774705,8597.474381710972,8623.75276018959,8496.893041904847,8630.57123953775,8509.812538859102,8245.538225309052,1.0
536,8160.862654938286,8370.063343704573,8594.703960738374,8620.895636763984,8493.4448380202,8627.501785005274,8505.9854606815,8240.99613868342,1.0
537,8190.486833533215,8400.050691404062,8626.786560552893,8655.037156007844,8532.593601619357,8670.206390021393,8540.276518850498,8276.417008384924,1.0
538,8190.431277487754,8402.036707657655,8632.681010151862,8663.12101694897,8544.737707227681,8687.049843398025,8543.772724372988,8279.108545968813,1.0
539,8181.613623850996,8394.790497462844,8627.714553871669,8659.15021905202,8541.938130984394,8687.059845841093,8535.151409194645,8269.239908105592,1.0
540,8177.521149846952,8390.097141117665,8622.387798504156,8653.646104636777,8536.592778249411,8681.155247351813,8532.077028823418,8266.577836372155,1.0
541,8143.174077073456,8352.788448881669,8581.150208956296,8611.430625530378,8494.67986102071,8635.4168943445,8499.467670080023,8236.767031277364,1.0
542,8173.615908406595,8378.797247655224,8601.147507385467,8630.326868712582,8514.29632916346,8649.528927284193,8531.924458692274,8273.12373846038,1.0
543,8177.087751104252,8377.694291983153,8594.327566051183,8622.785291831202,8508.875409211063,8639.07581506108,8538.454923323223,8284.07679654242,1.0
544,8137.654004848776,8334.495875382117,8547.02125735266,8575.825662804735,8465.782135179847,8593.491524088742,8500.739049572554,8250.33943424717,1.0
545,8158.898567808844,8357.099168057297,8571.246671288902,8600.861659860502,8491.441323572724,8621.253509815699,8521.309865533094,8269.085758872021,1.0
546,8166.788773386677,8369.527518823583,8588.652654313428,8618.996112905936,8506.54974918635,8641.022995863113,8524.589448789242,8266.523752889569,1.0
547,8189.3975613063985,8397.10610639487,8621.940870047496,8653.009391117406,8536.771552822076,8676.663430933666,8543.297964324116,8278.704409093705,1.0
548,8191.164413618919,8399.989274910247,8626.160823458218,8657.44114291379,8540.377419628514,8681.630608517637,8544.097878458644,8277.644406735468,1.0
549,8146.084938394131,8349.110045437064,8569.548203410577,8600.971651431619,8490.304952326052,8626.898114832264,8508.610116734579,8248.934487653367,1.0
550,8016.61674904596,8210.363307320735,8420.924974873473,8452.562228004537,8352.216774442495,8481.002078191259,8391.967727680612,8144.192034489719,1.0
551,7977.86984491077,8162.80719588005,8363.808339751391,8395.927248483977,8305.696234947536,8427.314374858055,8364.524600897572,8127.736962831255,1.0
552,7959.13106323119,8139.195368739036,8334.818439896375,8367.37821932086,8283.096020850751,8401.15770383997,8351.07538098833,8119.821948978343,1.0
553,7972.205409561743,8150.971635693137,8344.962511580035,8378.1314236075,8296.274946854068,8414.199316108083,8364.499315899122,8133.722680093754,1.0
554,7984.980965275219,8167.610099387721,8365.107602345168,8398.276996802793,8312.079800626618,8433.072379436362,8371.623513551776,8134.926655861051,1.0
555,8005.642550328336,8195.465086798258,8399.987786774695,8432.43457094957,8336.99187340373,8463.318363029222,8381.11106811727,8133.675291820146,1.0
556,8029.365776232147,8221.929137579516,8429.664339443416,8462.102925724512,8363.761289185779,8492.485563820564,8404.337802921662,8152.3407914754125,1.0
557,8030.836046920905,8219.694026364603,8424.02391316476,8457.088196631645,8364.011123848353,8490.433289741333,8411.443655863639,8163.961590281879,1.0
558,7977.447965772082,8159.187355180737,8357.136766372658,8391.046024443354,8307.956167912009,8430.085863419821,8370.811479645461,8132.874696917114,1.0
559,7765.567363809319,7934.815374479624,8121.29927500537,8157.004111305404,8091.342540766035,8206.02899076825,8178.912042976655,7957.878863594605,1.0
560,7609.293732281864,7766.697559754919,7941.796890648872,7980.24517355737,7933.405222695221,8041.401500788506,8041.265732624628,7835.932960682318,1.0
561,7614.907691883308,7770.166003108553,7942.6360394515805,7981.352817362288,7936.771097335635,8043.870884306552,8045.437088881137,7841.186989513318,1.0
562,7668.375641591753,7831.054097540223,8009.292179751049,8045.711399774317,7986.746541001818,8097.569402004702,8079.138216537403,7861.931492344145,1.0
563,7734.456592226247,7905.253916994289,8090.093273641093,8124.143926473848,8050.012931477598,8164.725590942487,8128.012698253256,7896.989368157659,1.0
564,7798.657156120506,7973.956318619867,8163.164708046918,8196.541638876173,8115.967582464676,8233.030745834647,8190.580241565953,7952.149560550687,1.0
565,7779.650875120185,7954.301411549622,8143.5026157132,8177.719692550897,8100.200804935084,8217.39457134089,8180.40980948854,7943.234769730278,1.0
566,7738.824933693885,7904.195237203091,8086.6355749771255,8124.348819539868,8067.213574782177,8181.113862729169,8162.500646041047,7940.067053862698,1.0
567,7674.293501455637,7828.162608091055,8002.282485142747,8044.556274947886,8012.921942663398,8122.963033837972,8125.638162410976,7921.695899385032,1.0
568,7578.2005656365,7723.280066292145,7889.915553027728,7935.178929175088,7920.650389353505,8027.577527936171,8043.641186725288,7852.549118093718,1.0
569,7574.702368470739,7717.845959725076,7882.305424396835,7928.010702583919,7916.430345114823,8022.582833373132,8040.423497162182,7851.014930711574,1.0
570,7595.656864621652,7743.515175571389,7910.6679231373455,7953.682303734737,7929.046849557257,8035.785145584927,8045.001080807637,7846.149267003887,1.0
571,7689.468246438445,7845.026583540478,8016.609563885953,8055.259648866066,8009.4441204728755,8117.187001767821,8114.1159971804855,7900.346824496908,1.0
572,7798.602999459789,7960.940649426996,8136.821950279255,8172.053459045889,8109.454677822066,8218.165899702772,8207.524768976933,7981.409998081463,1.0
573,7779.221472056156,7943.826866265996,8123.112051636561,8159.632487536343,8098.7488946541225,8209.40384684338,8203.09230180934,7975.305477292673,1.0
574,7547.925586228762,7708.930105894645,7888.714762638074,7930.6271899361755,7888.092381444326,8001.01104455313,8005.326081355142,7787.002988770039,1.0
575,7485.7316971724,7639.2490764193035,7815.809774770499,7863.5710385385255,7843.269264086137,7957.54251744009,7968.613186872537,7764.210134149417,1.0
576,7461.043727811192,7608.380820680899,7782.412908940962,7835.5060357602315,7834.740864235604,7951.011028316093,7966.097383463548,7773.689364007728,1.0
577,7429.176498390242,7573.140542026115,7744.862838689748,7799.962902900166,7807.7177522352995,7924.265612587234,7940.585874107584,7753.488060610388,1.0
578,7471.265634498817,7617.092339753616,7788.379107510967,7840.477546392201,7837.883017105475,7952.466661470161,7967.961684444272,7775.124786141277,1.0
579,7488.962010661009,7638.964962628399,7810.99484993955,7858.427787105976,7838.52654024256,7949.957217292006,7965.966515838773,7763.180281651039,1.0
580,7545.736196924955,7700.50450290391,7873.820783161914,7916.3306596393695,7877.740662477064,7985.865703195651,8003.756308489147,7790.395516901328,1.0
581,7624.157984984045,7782.658687039445,7957.567115047318,7996.822786311331,7945.3856232705,8051.614621311545,8072.0716611951375,7851.490432584986,1.0
582,7618.633367914485,7777.096368909319,7952.501173908838,7992.2035740823185,7942.2562556666635,8049.023564489535,8069.254164013736,7849.397005918652,1.0
583,7625.824252183982,7781.673401469471,7957.509390036535,8001.0526038892585,7964.942332139635,8075.329593248647,8090.768498888737,7878.171890820259,1.0
584,7503.576984188846,7656.08224270348,7832.448651905755,7882.118686177688,7865.782847175444,7981.798496276796,7989.3021813219075,7786.689487913641,1.0
585,7370.366580608481,7519.668507456304,7695.767156429989,7750.06078135385,7748.4445545579365,7868.249467183008,7868.969838373641,7673.754360835563,1.0
586,7372.822933731998,7521.838956280285,7697.393515062211,7751.543876771349,7749.415184657269,7868.936240527167,7869.858103258693,7674.503112321175,1.0
587,7392.3735742553245,7542.57222223177,7716.0900173333275,7765.967820986428,7750.770434862918,7865.164322256925,7874.134175148564,7673.055784071011,1.0
588,7471.210729004234,7623.017051471286,7794.002393845829,7838.561993496115,7807.413501427666,7914.915608317942,7935.081044328169,7727.033546537974,1.0
589,7497.270429174549,7650.288465580183,7820.413667193492,7862.416245295563,7822.920034668359,7926.748679437079,7953.532717895806,7741.691428240794,1.0
590,7494.183244935663,7647.435706388703,7818.2181147206,7860.707217879618,7822.472627793622,7927.011508757282,7952.636397481462,7741.248658733716,1.0
591,7453.6278666323615,7606.802771170964,7779.438887734106,7824.334557406442,7792.730969511569,7901.18355057838,7919.8715181937305,7710.980826727924,1.0
592,7320.7786049561355,7472.605065694262,7646.195643252523,7693.552113196798,7670.805305603609,7783.418905271034,7791.934847107259,7587.393637238149,1.0
593,7245.421054491699,7396.243431308391,7571.122554097158,7621.086189469066,7606.169749584292,7723.280431092505,7721.612567112874,7520.267084961568,1.0
594,7251.412008367965,7402.5563547605325,7578.570643557374,7629.446601918692,7616.4635387453345,7735.470961153782,7731.150714967997,7530.170732459957,1.0
595,7278.799703754879,7429.259454741233,7602.852128666898,7651.441796022538,7633.498883439675,7748.5322621386185,7751.514672497046,7549.377817939055,1.0
596,7343.388513545701,7493.700812054872,7664.5154109952955,7709.901439886641,7684.320887540105,7793.448739380317,7808.295650001983,7603.899469736319,1.0
597,7343.021081235192,7492.739756648678,7660.603218190124,7703.28650102704,7671.944397463967,7774.9205915020575,7801.492345806689,7596.014158943121,1.0
598,7364.982080243502,7515.271661019938,7682.918265611031,7724.478170084797,7690.207599081597,7791.265818726874,7822.780546741901,7615.9960121856775,1.0
599,7317.982001472491,7469.7234372303055,7639.779530211765,7682.4616158546005,7649.937356184783,7754.19680105015,7779.656586140839,7572.519328844174,1.0
600,7310.466134906736,7463.012143363649,7636.142561273398,7681.192844549008,7653.3410302328175,7763.080369394159,7776.441217972438,7569.51556345477,1.0
601,7291.149923150847,7444.541300768755,7620.794918105741,7668.142769686441,7644.265506283552,7759.51012710094,7760.294754421666,7553.006440417345,1.0
602,7277.234282423097,7430.339543623256,7606.62937998576,7654.3572705328415,7631.457252562596,7747.9833778961665,7744.603675413601,7537.525753467041,1.0
603,7325.1940346059455,7476.274699278227,7649.559018989862,7696.012599788217,7671.145313084024,7784.156485795375,7786.8827135126585,7580.928595598858,1.0
604,7387.230385141535,7537.270455912638,7708.559653433501,7753.824979802442,7726.475185772913,7835.899092938503,7847.362710983311,7641.39612478724,1.0
605,7380.792705341381,7529.201099217777,7697.6299408376535,7741.85963793076,7712.788593046258,7817.612536538548,7840.129925728036,7635.369979455699,1.0
606,7394.243538531772,7542.204128368055,7709.333722567434,7752.96378574199,7722.571456333153,7824.890265297417,7854.171619324506,7649.889765077888,1.0
607,7379.0466656047565,7528.141687156561,7696.691833393798,7740.44399520227,7709.720453815979,7813.601341048267,7839.574804919183,7633.796255759418,1.0
608,7440.64086888337,7591.052396095859,7761.718076255836,7806.435028719852,7777.085733563814,7884.894048091812,7901.09027078295,7693.674236663247,1.0
609,7517.297915203039,7670.197701122841,7844.618381190688,7890.449652432127,7861.165376126693,7974.329674707631,7979.157325179359,7768.649823709983,1.0
610,7515.62150515603,7670.0236992473365,7846.6697418842205,7892.763250604976,7862.282139015764,7978.484628990888,7975.982939281386,7763.019589186866,1.0
611,7514.786213980277,7668.575748200004,7844.528776511568,7890.573463398837,7860.629465253741,7976.003503528818,7975.856727017257,7763.768861110465,1.0
612,7509.161113288299,7660.090197973411,7832.777165057164,7878.515720941325,7851.352686697823,7962.688969554858,7973.778129406562,7765.703634191523,1.0
613,7579.518528783494,7727.304213370173,7896.476519723867,7942.016525815188,7917.961491126759,8024.530571159645,8048.310671078984,7844.562036785408,1.0
614,7556.1539578018765,7701.763583031391,7868.621895148951,7914.394941159719,7893.193430439256,7997.118712899266,8027.851873006571,7827.392381814056,1.0
615,7557.037602606448,7701.678244579732,7867.599864820791,7913.671679161664,7894.005228044266,7997.790273697954,8027.545101532084,7828.133541715627,1.0
616,7477.475269698846,7625.561607473481,7793.977050110544,7839.603085894424,7813.812555366653,7920.192031086988,7943.755665376345,7739.157093019989,1.0
617,7451.231675608877,7603.157807238026,7774.772398023144,7820.119433375322,7786.579972896438,7896.776691214976,7909.508861073937,7698.364955340632,1.0
618,7530.301348074556,7685.840594494666,7861.752693350775,7907.340355044393,7869.815171466006,7984.026561389798,7989.116089513984,7773.021319993937,1.0
619,7534.206271616963,7690.782751939238,7868.166303058547,7914.049964406543,7876.397538768801,7991.909350506804,7995.76162477122,7778.687808575837,1.0
620,7488.771709660114,7643.94267363603,7820.664382214665,7867.45776953992,7834.044805143842,7948.570960962549,7957.332269035798,7743.454216881562,1.0
621,7444.220670726739,7595.286729703779,7769.179739912804,7817.508503920845,7793.407207428134,7905.095767871369,7923.463581229127,7716.8493527073315,1.0
622,7456.094422667363,7603.185517628421,7774.899671527921,7824.604509460552,7809.014997214547,7918.31638275332,7945.153586158497,7745.127745989832,1.0
623,7439.021948155196,7584.354471300344,7754.768922914323,7805.137220060529,7792.7959918512115,7901.520984571592,7929.334258551335,7731.750920598705,1.0
624,7499.4326245601615,7645.867956386871,7816.234271103906,7865.626955516986,7849.068654314495,7958.582224071086,7980.727672956586,7780.17434544973,1.0
625,7525.063049700448,7674.74434876039,7846.887883949373,7894.172045301197,7868.546408099953,7979.377370419008,7995.671404904463,7788.514489639385,1.0
626,7553.032780816384,7705.614594077275,7879.727702246063,7924.767558465762,7890.431303574806,8002.433494504726,8014.15355989722,7800.421848809641,1.0
627,7557.9148126905,7711.368550703123,7886.256831974133,7930.81737811174,7894.320495737912,8006.637194739553,8017.392264701428,7801.923392109851,1.0
628,7580.307096645789,7731.428559607911,7905.169999102098,7951.470027223075,7921.6311506089,8033.426783937612,8045.696013405483,7835.116195484373,1.0
629,7606.3070583025665,7754.768404664363,7927.880349870219,7976.753147401839,7956.883149282353,8068.841573103839,8081.664389038757,7877.283924191718,1.0
630,7549.584068487228,7694.859303944869,7867.1593613744135,7919.0378786071005,7910.704359537535,8023.312488718158,8035.188062270842,7837.448783753244,1.0
631,7491.879357882468,7634.623287096005,7806.259683267067,7860.7542459092265,7862.276836454232,7975.665115770597,7985.750756689042,7793.104296413762,1.0
632,7492.47387537181,7635.119787714709,7806.586582897028,7861.071877736182,7862.354443807853,7975.668375656982,7985.852971445052,7793.011692882507,1.0
633,7563.721162577321,7707.366567936303,7877.308472192607,7928.734324976839,7919.0071726656815,8030.2640056953915,8044.461854937971,7846.57424070303,1.0
634,7757.518541239391,7902.725762930876,8071.610806323585,8118.395239273719,8094.005715916483,8202.776609758119,8224.012643667922,8019.24663803757,1.0
635,7792.8233196598885,7939.133705155635,8107.57474491049,8152.127857478992,8120.375422049774,8227.42014218708,8253.620649095235,8045.08396343774,1.0
636,7806.177981149063,7951.740508893303,8120.053084912476,8165.276606644257,8136.081537346809,8243.455050441042,8267.191197415135,8060.196534879416,1.0
637,7845.482325339161,7990.745861912347,8161.625344945428,8210.641714855574,8192.657915222302,8304.41943808903,8317.479669471673,8115.142020061963,1.0
638,7834.576364759669,7980.106352755976,8155.265059806273,8209.47152189333,8205.570808327831,8323.867290182323,8322.135509158408,8125.186897101053,1.0
639,7807.59454061457,7952.436299469979,8129.279787516217,8185.98866511173,8189.578969159931,8311.149855420115,8301.54819221536,8107.709783767168,1.0
640,7814.2701936558615,7958.374822904384,8133.850487585956,8189.876020435402,8192.021405673113,8312.648023323663,8304.968883247011,8110.911283429656,1.0
641,7821.315495208815,7965.117514062111,8138.446101533378,8192.180869766602,8188.60006338329,8306.111807416177,8305.773996879438,8109.729151539831,1.0
642,7851.717783304915,7995.679572509817,8166.816746334732,8218.173447887364,8207.816887825671,8321.71350649828,8331.129439377997,8132.377999574294,1.0
643,7874.82357340556,8018.539247264344,8187.112668833802,8235.653870411661,8218.165284697332,8327.821539745491,8348.090022431941,8146.965702994801,1.0
644,7877.432249593228,8020.867155990812,8188.041052984071,8235.130985319787,8214.436866388432,8321.896057198383,8347.282002433314,8145.23160925734,1.0
645,7872.453992725839,8016.78810366672,8187.369049039515,8237.707934125576,8224.86201748249,8337.450472822744,8350.031466686132,8150.113475414432,1.0
646,7938.062004482881,8084.485568677366,8261.593751439726,8317.68061915457,8318.886286125071,8441.39661033657,8429.119201949525,8232.574326448163,1.0
647,7947.043341286747,8095.327427380126,8277.702726617248,8338.01522719871,8348.769659679363,8479.275516442487,8448.596615528586,8253.762781020294,1.0
648,7924.826473032703,8072.498219064966,8255.340354755363,8317.055116675998,8331.651067706262,8464.531652699896,8427.46650493566,8234.117931509545,1.0
649,7951.177690597801,8097.217925402298,8276.644297195937,8336.334334505813,8346.658944379808,8475.774503311603,8447.812069226897,8254.056514093847,1.0
650,8017.311407972096,8160.846220858141,8333.517427944384,8388.393814334506,8388.109428742657,8508.395296982517,8502.83427755591,8307.448038704619,1.0
651,8060.398901310831,8202.12878834456,8369.104387836474,8419.448525295267,8408.718114632658,8520.757743727701,8537.186697374465,8339.880503771077,1.0
652,8072.966992901664,8214.67653519076,8380.54875025575,8429.601994823077,8415.76320519855,8525.562299478914,8548.984762774951,8350.689383572413,1.0
653,8014.025980889999,8157.459506904738,8326.31783845312,8376.639033090343,8365.409140636173,8478.620820999806,8496.852652962925,8298.103942915772,1.0
654,7969.644859017538,8114.5034461842815,8287.50223740937,8341.006856771282,8337.551397236666,8457.77834210891,8458.804521016113,8261.41731934515,1.0
655,8035.907267894475,8183.968463446152,8364.328196063725,8422.846242636788,8430.0547433492,8561.463377401602,8536.088787228178,8339.344500364263,1.0
656,8008.765250311035,8156.862167962927,8338.893199930088,8399.389772810357,8411.668393864049,8547.313342833275,8510.821931362685,8315.298694365312,1.0
657,8026.544230157577,8172.942828917813,8351.896125986126,8410.79653819693,8420.1242546633,8552.594848857669,8523.662775582823,8328.433940884186,1.0
658,7974.1279296637085,8118.520668627958,8293.090721067687,8349.054757722195,8352.540259173926,8478.57213366923,8465.226316197108,8270.314873407004,1.0
659,7987.513500636614,8128.630507160502,8296.129796590812,8347.470941519588,8342.090324991925,8457.319353013194,8469.664606173332,8274.86300688435,1.0
660,8009.075015667358,8148.471134664083,8311.841729106574,8360.2632155156,8349.297853383368,8457.834157094938,8486.588908492316,8291.554906495567,1.0
661,8005.73503535045,8145.909340473828,8310.702003253882,8359.968338883973,8350.632649917537,8461.385251849979,8485.129183613537,8289.89599866341,1.0
662,7915.251308017644,8058.027148067341,8227.79763550402,8280.185674039523,8275.798414763725,8393.989023647344,8401.037694933395,8204.973053248457,1.0
663,7771.630862570629,7916.237575322915,8090.577650199613,8146.656321161267,8149.066903872945,8276.291055661011,8261.766197725536,8065.980683518019,1.0
664,7742.785597290208,7887.606531739504,8063.649219010506,8121.440689315027,8127.651985280007,8259.499796065567,8233.36444910784,8038.154969855607,1.0
665,7740.506355958058,7885.444021342307,8061.606103535677,8119.279234897233,8125.041245314554,8256.984464144809,8231.737410988044,8036.237363542963,1.0
666,7741.139310299917,7884.537849211478,8057.734157189548,8113.390823399537,8115.749318506085,8242.586438265718,8229.301521065398,8034.266918800317,1.0
667,7798.472186192878,7938.936787556031,8105.856139052082,8157.90904011145,8153.968053213333,8270.447376697355,8280.889469313704,8087.264171060231,1.0
668,7798.509012265828,7936.681513205747,8098.925144195587,8148.696364562747,8140.899075726836,8249.7700857447,8277.456277863972,8085.148184944656,1.0
669,7795.251231131866,7932.775178360514,8093.965636113714,8143.403297816242,8135.3871067506625,8242.831319785682,8273.01735191341,8081.289546054587,1.0
670,7788.552311850131,7927.030597740123,8090.044350545292,8140.39494286271,8134.146322137842,8245.242107482994,8267.615283669838,8075.057568842802,1.0
671,7737.705974800287,7878.157663365286,8045.048087201558,8097.294330617057,8094.104002070943,8212.743206513842,8218.733775983668,8024.352756735139,1.0
672,7623.523986123241,7764.746367185781,7933.365307360956,7987.231855970231,7986.57013383027,8110.833924943433,8103.353304467572,7908.257684828608,1.0
673,7628.7439887704895,7768.478977706001,7935.198371051387,7988.637692951605,7988.045706655634,8111.172125927474,8103.343597167275,7909.668418003535,1.0
674,7591.654440030171,7730.986360356872,7896.890090510961,7949.418227252365,7947.490810183781,8067.22816766003,8067.952355771142,7875.134672416272,1.0
675,7533.513831049222,7671.749919412874,7835.465691142141,7887.196160585324,7884.987441152521,7999.7420810024,8010.358367026894,7819.788235994061,1.0
676,7519.0464314255805,7656.522008307012,7818.416992230385,7869.578091916246,7867.876242715432,7977.726162063981,7996.7669708264375,7808.317670048095,1.0
677,7522.497400938282,7660.057353121746,7821.894395868858,7872.953069071023,7871.4685244635975,7980.180819848393,8001.179057792811,7813.091656724248,1.0
678,7461.8812866770295,7601.098544544703,7764.700370468959,7815.776234032312,7812.2604642025435,7923.63496680895,7942.569771251426,7751.649334811121,1.0
679,7357.846178337532,7497.635986239587,7661.043789052415,7711.544663384388,7704.791602251558,7818.070208551555,7835.705177858739,7642.69939442829,1.0
680,7308.780875911339,7448.070333110338,7609.823774600687,7659.470286901557,7649.895337830686,7764.135749828613,7781.825881646268,7587.692988658054,1.0
681,7311.0471998281155,7450.1959663780235,7610.926186251247,7659.674476964066,7647.476315811378,7762.510073509981,7781.683851951261,7586.217438906949,1.0
682,7314.151918085506,7453.224286817507,7613.968105609216,7662.891614646207,7651.366444579603,7766.177668872954,7784.536270205321,7589.411661153522,1.0
683,7400.114742861646,7540.188663234944,7703.454052132063,7754.635402634676,7750.78444533709,7865.7962282945655,7874.263789430187,7682.386913421496,1.0
684,7365.944842265188,7508.501076895121,7676.9376459715695,7731.941592207577,7738.054205676815,7855.393398437245,7849.832045059431,7660.739814227581,1.0
685,7323.141076161253,7466.079087372349,7636.3022072868835,7693.034638820196,7703.844181425625,7822.386705500125,7809.745059449108,7622.457370980893,1.0
686,7311.50679011553,7454.541233085474,7624.328116798206,7680.373007391544,7688.940899050953,7807.049484364805,7797.729493536968,7609.335233955084,1.0
687,7198.1799056443115,7340.0664840072905,7506.25650029665,7559.454611881381,7560.998591940005,7675.262033203141,7679.445330749844,7489.000514631543,1.0
688,7093.530394254364,7231.862482734906,7390.910600023893,7439.765377326844,7431.816991284419,7539.439331548524,7564.2715778068705,7372.210488793057,1.0
689,7129.671087884719,7266.587374301679,7422.079661221958,7468.112142711194,7454.0065111165795,7558.027639072917,7596.516079216003,7402.903887476953,1.0
690,7127.590714523526,7265.777602521445,7422.87111672996,7468.9940301848565,7454.479778759903,7559.171047196155,7599.010860185172,7404.401034805131,1.0
691,7136.543331266711,7276.534916162944,7437.812784560229,7486.729255674219,7478.007159641543,7586.756105977469,7612.875784546443,7419.288208977109,1.0
692,7181.508701755447,7324.930237287955,7493.839533657463,7547.030362853653,7545.996791196903,7661.872321526866,7666.931125774055,7473.374080996027,1.0
693,7167.943870275214,7313.789930529889,7488.376808913963,7545.311799179625,7551.430818126822,7673.327390987711,7660.1613838787425,7467.269367424091,1.0
694,7165.580146851623,7312.691506134008,7489.993002145743,7548.800673809989,7558.204137808567,7683.105659379875,7661.169315794887,7468.500481106031,1.0
695,7136.721171795467,7281.833157114705,7454.692075530856,7510.277124481491,7512.50619229039,7632.322228781936,7627.019416637242,7433.201677159637,1.0
696,7063.407554724577,7203.134400540765,7364.78729554012,7413.562524725602,7400.494549084592,7507.79337454327,7540.326070077961,7344.619820322178,1.0
697,7115.9021806992105,7251.213337090163,7403.520239079311,7446.2371423386185,7420.484407155116,7516.983389780698,7582.223296848981,7385.023727658722,1.0
698,7130.732690216859,7265.604858856848,7416.026737351225,7457.156066629248,7427.819856424339,7521.374971346593,7596.2131779524725,7398.2118772378835,1.0
699,7193.725947378249,7331.237279756065,7487.911087021146,7533.06726260575,7513.220270777739,7614.435235841759,7663.560164888144,7467.148128831789,1.0
700,7190.327650251654,7333.877443298508,7502.489927188424,7554.807987020724,7549.109452379901,7664.1026690425,7673.368643056085,7477.522156364105,1.0
701,7106.997019644621,7254.054287483699,7430.6435896543935,7488.640752633162,7495.007977625469,7620.587623722521,7598.244025504926,7403.98728251532,1.0
702,7104.033871140017,7252.882939800927,7433.388610259579,7493.847425164648,7504.992231198468,7635.642199968209,7599.683071273401,7405.549868511998,1.0
703,7114.032609613309,7261.581807900065,7439.898091287449,7499.348589728249,7508.4766881374935,7636.748918726414,7606.852941494972,7412.9236514406875,1.0
704,7150.587812823164,7294.4187474538385,7464.908787603231,7519.712406129839,7519.448558597828,7637.600031606134,7634.826326244144,7440.667123499293,1.0
705,7119.862006234098,7257.885568952548,7416.41024906304,7463.790619534741,7449.571525344633,7551.8817869884515,7590.667553545125,7396.336514690139,1.0
706,7178.499265407829,7314.998254787717,7469.3013401352655,7512.960955972942,7491.5041866326,7586.680724000995,7646.39031966818,7450.945930163547,1.0
707,7151.279841527782,7290.14298597274,7448.247388687379,7493.539065925567,7474.646629752648,7573.507894510987,7625.330139253481,7429.104515462686,1.0
708,7229.216909920776,7371.596129191804,7537.401855296928,7588.025417474231,7579.340047464413,7689.210651461654,7711.039998916366,7515.083677340086,1.0
709,7256.875296856412,7405.373929086722,7583.203785632369,7641.241976536834,7645.8907268560115,7772.692663325033,7751.900850667814,7555.22018323904,1.0
710,7200.077141799764,7350.161201894845,7532.36513929305,7593.960037120807,7605.7827408685125,7740.391374024813,7698.46990276701,7502.771220227538,1.0
711,7222.441667205028,7370.06221398027,7548.225321147988,7607.933865558301,7616.393058291,7746.658604103805,7714.679793885095,7519.845334331975,1.0
712,7350.458220149418,7493.333362186427,7662.468836792123,7716.858460842917,7715.417650388957,7833.671073636524,7830.407294424983,7636.473844100959,1.0
713,7505.773614987212,7645.262840363638,7806.421665851091,7854.962287230112,7842.076219672247,7947.396980314286,7977.027169793613,7782.385939653781,1.0
714,7520.04188142407,7658.492820102017,7816.459428768571,7862.585742797472,7844.908576551318,7944.407088309107,7988.5291597622445,7793.527428463851,1.0
715,7520.157273171877,7658.73838688065,7816.881248276651,7863.150393823577,7845.947478389363,7945.549161522259,7988.778795665262,7793.8951292262755,1.0
716,7539.948532868934,7680.209204510388,7842.619814063497,7891.896203493174,7881.276295174466,7988.300434403476,8013.120785822657,7818.414082171044,1.0
717,7467.4654326085865,7610.77961569017,7780.937214819742,7835.263359733927,7835.653879339292,7955.709574886652,7949.866972132271,7755.004671093606,1.0
718,7389.790345521174,7533.617158729854,7706.820180732276,7763.928917438729,7771.255062771613,7898.61810637637,7874.250958472735,7680.504864351887,1.0
719,7389.590386065365,7533.668223936755,7707.614771167741,7765.198424525091,7773.391506329195,7902.236020773872,7874.940522455198,7681.084504003431,1.0
720,7418.01430528406,7560.541751632994,7731.166166744499,7786.842146087788,7791.480527943849,7914.832314597383,7898.748058477044,7705.365136499982,1.0
721,7507.065555481612,7647.582963858084,7812.428165806635,7864.42188379876,7861.4108000845945,7974.131343785624,7980.265966931937,7787.136754820462,1.0
722,7576.66026338025,7716.640262573419,7878.471291337376,7928.028737756561,7919.128029260269,8024.500510030102,8046.949174752263,7853.140957152304,1.0
723,7585.401716374351,7727.579598134378,7891.655904332875,7941.197223689095,7930.645884134067,8036.523468474315,8061.945989955052,7865.701135698108,1.0
724,7581.476986984607,7723.809958820544,7889.696733667694,7940.999366636165,7934.41812579396,8045.080303849884,8060.7132589191,7864.631802339756,1.0
725,7627.282223041799,7769.880777546733,7938.4182609409245,7991.919887104191,7990.03108881491,8107.8593723644035,8109.852109561398,7913.752746970724,1.0
726,7533.166476609356,7674.468047980127,7842.718221611415,7897.6014997229595,7898.804566081829,8020.933631350979,8014.494769711435,7819.625937745257,1.0
727,7522.052817185315,7662.4977541838325,7830.026331498347,7885.181514786964,7887.288944731473,8010.417526171632,8001.717680859457,7807.472940206784,1.0
728,7506.298306485146,7647.177647944625,7814.9059294424,7869.631694431299,7870.741475537252,7992.13462364021,7986.178361880773,7791.787875555137,1.0
729,7591.487855889479,7732.432142627839,7899.759467450444,7953.442032839599,7952.578198403003,8070.1091776847015,8069.249286965607,7874.862422784221,1.0
730,7743.938453908366,7886.769765947676,8055.385845162103,8108.342285136171,8104.567690135431,8218.934056816408,8223.147259900568,8027.464407034816,1.0
731,7763.161092180505,7907.076700371105,8076.461730956969,8129.3881747821815,8124.501968878914,8236.935962003807,8242.690448231986,8046.725478289503,1.0
732,7767.167014443886,7910.701371817382,8079.7372904251915,8132.639554085697,8127.9481533762655,8240.81164640631,8246.225005193042,8050.393356179178,1.0
733,7675.6537597687675,7818.121615681833,7985.83530192993,8038.121212945943,8031.563134029871,8146.5298053689485,8156.079746780711,7958.995887519938,1.0
734,7655.684119539659,7795.486041652875,7959.771128234604,8011.123128638882,8003.351788497586,8119.990293163088,8134.813719468423,7937.4804220761425,1.0
735,7707.80627664699,7847.4875677220225,8011.661398083423,8062.742495016625,8054.269123657186,8172.361798319759,8189.068148280624,7990.670727262263,1.0
736,7716.08275338755,7855.686058070445,8019.63278681464,8070.798793207544,8062.757627428742,8180.31777310352,8196.172156955216,7998.3067451191255,1.0
737,7818.640493946685,7958.779491683249,8123.553077282141,8175.430545382914,8169.092349308071,8286.059104628986,8297.14997065311,8100.33462541617,1.0
738,7977.521911885266,8120.329818739107,8288.841761286363,8342.017628887217,8337.722846452876,8455.714350604092,8458.157867444204,8261.488652087506,1.0
739,8046.071253578627,8191.883453383933,8364.390991797805,8418.827283182849,8415.730122760062,8535.325592386187,8530.585824554542,8333.020033730818,1.0
740,8041.422493218189,8187.465270049813,8360.517530920757,8415.414658504507,8413.175295660505,8533.085112533048,8526.000911801058,8328.674170068289,1.0
741,8058.117524108314,8202.433291969479,8372.757896668454,8426.236147251871,8421.579355361699,8539.976980856913,8540.32097760965,8343.013145953813,1.0
742,8092.882557966125,8234.726768912804,8400.55918672985,8451.933422347545,8443.794192122856,8559.356261204472,8572.116894941531,8374.91914389485,1.0
743,8148.488886778066,8289.406794571787,8452.83749891557,8502.705665886228,8491.34631600813,8605.138500204592,8627.683003303551,8429.779024016876,1.0
744,8149.437036117359,8289.557132273783,8451.457474335955,8500.440061406158,8487.661399462933,8600.021245566126,8627.55095946941,8429.655206302537,1.0
745,8189.31074719794,8330.536285378445,8494.547196866912,8544.709188730201,8534.173135682291,8647.762091635776,8667.79763304028,8470.309096127752,1.0
746,8182.401617324283,8326.738735579716,8496.533384934131,8549.42950740328,8544.408829380933,8662.396217677182,8665.4100428928,8468.36915509793,1.0
747,8088.26829846155,8234.078419936997,8407.658797495204,8463.44091434655,8464.990651911117,8586.796568513479,8572.463230919648,8377.392031887332,1.0
748,8079.462005352924,8225.893663935882,8401.108067208646,8457.95796860896,8461.778761594218,8585.048452306522,8564.557002005598,8369.958708771917,1.0
749,8007.084969382689,8152.236182400264,8323.943162115635,8378.445739995524,8376.300782183938,8495.369952414094,8491.46023596841,8295.56877836124,1.0
750,7936.802878675523,8078.221747502509,8242.718564362372,8293.264414215697,8283.68346021398,8395.571350985905,8414.85461587829,8219.17217128737,1.0
751,7932.737733537978,8071.628220369624,8231.373221656708,8279.224417394476,8264.523919962681,8371.273920828795,8406.328840767064,8210.863028325944,1.0
752,7928.0776927919305,8065.497852672912,8222.532091971356,8268.965403470818,8251.631085256971,8355.15220634992,8398.766397128931,8203.57566015491,1.0
753,7949.597363094063,8087.854342463421,8246.625561671908,8294.311580564354,8279.657851668788,8384.936186958272,8420.695675610166,8225.95365574087,1.0
754,8036.1562906151585,8178.217023786167,8344.238782582086,8395.651418619536,8387.389589771408,8500.149868586197,8512.63909106669,8317.32970266098,1.0
755,8077.92742650645,8225.093230261475,8400.549989058263,8456.346306850122,8455.105450169409,8577.347114963002,8562.555761658554,8366.076296402662,1.0
756,8044.854831349453,8194.348940894832,8374.564731491919,8433.283646278014,8437.344030984337,8565.093403466717,8533.027574937161,8336.639797182188,1.0
757,8056.884582906,8204.938903585975,8383.177179487286,8441.278052206324,8444.385302350503,8570.474978852486,8542.27895445551,8346.468582242134,1.0
758,8068.87200925254,8212.359362507375,8382.32546368003,8435.809997745302,8430.444965495457,8546.829378918688,8546.35657356259,8350.725057539174,1.0
759,8137.757571758347,8275.321926014616,8434.589291486156,8482.050936808622,8465.261012527357,8568.735057983358,8605.238725575546,8410.065667371258,1.0
760,8173.5793138851495,8309.904982476273,8466.065843293662,8511.318725239738,8489.68937345056,8588.485187024511,8640.155742809195,8444.250943525132,1.0
761,8190.772853756923,8328.853376391222,8488.443588016993,8535.661877191942,8518.5226027451,8621.405016758685,8659.071843824564,8463.649543872298,1.0
762,8164.646838448053,8307.844719403736,8476.833248086576,8528.880304375152,8521.307551316226,8635.312562652955,8641.690731566976,8445.670451898062,1.0
763,8085.94801412375,8233.981333155876,8412.790305798915,8470.51030382816,8473.443556093609,8599.778321996806,8571.572027948425,8375.376442512503,1.0
764,8113.769775696726,8265.41436071152,8450.76825486924,8511.50693604167,8519.151704153068,8652.727844086286,8606.274143672481,8408.647466702887,1.0
765,8113.714914542582,8265.151840956443,8450.363911171418,8511.002937087153,8518.234558020553,8651.773479608051,8606.042674186861,8408.33481063448,1.0
766,8169.96328302012,8317.223146939747,8494.553774793814,8551.035909262537,8550.40555268167,8674.933587575342,8653.650517874816,8456.989643651188,1.0
767,8318.25504350724,8459.953550950775,8626.64555663847,8676.397172190378,8663.497720095234,8774.513663106793,8791.11069810514,8594.77649814287,1.0
768,8445.125006055017,8584.822813158205,8746.329390066723,8792.085939850154,8771.090706497545,8874.341841105293,8916.208236007566,8718.506824672739,1.0
769,8446.426978918596,8585.774918916833,8746.290254762376,8791.441264402285,8769.44050856965,8871.260169986945,8916.842564664714,8719.135959018873,1.0
770,8492.46694070421,8634.191199792216,8800.144307201599,8848.95814892529,8834.121146502133,8943.784293184995,8966.443530005641,8769.100749498482,1.0
771,8532.883969447876,8679.418774175641,8855.649523170478,8910.601700736033,8907.45363869377,9031.46860995215,9015.969902029017,8818.125240171312,1.0
772,8559.562416697905,8710.3859760074,8895.453630943925,8955.226123970555,8961.037443544963,9097.333287085692,9051.063278082596,8852.112653464568,1.0
773,8546.037968678796,8696.461252629248,8881.968320642032,8942.664577642658,8950.747688885518,9089.339059817641,9036.62687824729,8838.437103625838,1.0
774,8592.187531752304,8739.202150670451,8918.176349936213,8975.237796334295,8976.482045324363,9106.89845738195,9074.903792364204,8877.499996629685,1.0
775,8602.589315740961,8745.876344538574,8917.100477265745,8969.606915267257,8962.387315024487,9081.666505433363,9077.6861030486,8880.930007626479,1.0
776,8675.672380262304,8817.387232359115,8983.949836886684,9033.193635079386,9019.501963906725,9131.038466706847,9148.647334608098,8951.263230247194,1.0
777,8693.00790385809,8834.674576350268,9000.046674115129,9048.151448642337,9031.885442238427,9140.89581095949,9166.786412459727,8968.740023662436,1.0
778,8707.43720999909,8850.156266292244,9018.021514535956,9067.827805833846,9055.135102444743,9168.486051262718,9182.761325084466,8984.76198630721,1.0
779,8713.602656539559,8859.060375849658,9032.794680391979,9086.262189076984,9081.124127803569,9204.44393581752,9194.52673073429,8996.092441454897,1.0
780,8626.385151068815,8773.429694014048,8952.0125785562,9008.770530096568,9011.162201434077,9144.03548341506,9111.367991141788,8913.085162281794,1.0
